timestamp,sampleNum,BIOZI,BIOZQ,BIOZ
50594.684326171875,1.0,168078.0,-75333.0,127310.0
50613.36865234375,2.0,249077.0,-118239.0,84404.0
50632.052978515625,3.0,314984.0,-153828.0,48815.0
50650.7373046875,4.0,360894.0,-179071.0,23572.0
50669.421630859375,5.0,387861.0,-194261.0,8382.0
50688.10595703125,6.0,399754.0,-201317.0,1326.0
50706.790283203125,7.0,401181.0,-202643.0,0.0
50725.474609375,8.0,396311.0,-200460.0,2183.0
50744.158935546875,9.0,388365.0,-196510.0,6133.0
50762.84326171875,10.0,379513.0,-191984.0,10659.0
50781.527587890625,11.0,371018.0,-187589.0,15054.0
50800.2119140625,12.0,363465.0,-183661.0,18982.0
50818.896240234375,13.0,356984.0,-180294.0,22349.0
50837.58056640625,14.0,351468.0,-177439.0,25204.0
50856.26513671875,15.0,346698.0,-174987.0,27656.0
50874.949462890625,16.0,342442.0,-172814.0,29829.0
50893.6337890625,17.0,338500.0,-170816.0,31827.0
50912.318115234375,18.0,334724.0,-168911.0,33732.0
50931.00244140625,19.0,331019.0,-167049.0,35594.0
50949.686767578125,20.0,327330.0,-165198.0,37445.0
50968.37109375,21.0,323635.0,-163349.0,39294.0
50987.055419921875,22.0,319932.0,-161498.0,41145.0
51005.73974609375,23.0,316231.0,-159647.0,42996.0
51024.424072265625,24.0,312543.0,-157800.0,44843.0
51043.1083984375,25.0,308881.0,-155961.0,46682.0
51061.792724609375,26.0,305252.0,-154136.0,48507.0
51080.47705078125,27.0,301663.0,-152326.0,50317.0
51099.161376953125,28.0,298117.0,-150535.0,52108.0
51117.845703125,29.0,294616.0,-148762.0,53881.0
51136.530029296875,30.0,291160.0,-147011.0,55632.0
51155.21435546875,31.0,287748.0,-145281.0,57362.0
51173.898681640625,32.0,284379.0,-143573.0,59070.0
51192.5830078125,33.0,281052.0,-141885.0,60758.0
51211.267333984375,34.0,277765.0,-140217.0,62426.0
51229.95166015625,35.0,274515.0,-138571.0,64072.0
51248.635986328125,36.0,271300.0,-136945.0,65698.0
51267.3203125,37.0,268119.0,-135340.0,67303.0
51286.004638671875,38.0,264973.0,-133755.0,68888.0
51304.68896484375,39.0,261864.0,-132192.0,70451.0
51323.373291015625,40.0,258790.0,-130647.0,71996.0
51342.0576171875,41.0,255751.0,-129120.0,73523.0
51360.741943359375,42.0,252748.0,-127611.0,75032.0
51379.42626953125,43.0,249781.0,-126118.0,76525.0
51398.11083984375,44.0,246852.0,-124641.0,78002.0
51416.795166015625,45.0,243960.0,-123182.0,79461.0
51435.4794921875,46.0,241102.0,-121739.0,80904.0
51454.163818359375,47.0,238278.0,-120311.0,82332.0
51472.84814453125,48.0,235488.0,-118900.0,83743.0
51491.532470703125,49.0,232731.0,-117504.0,85139.0
51510.216796875,50.0,230006.0,-116125.0,86518.0
51528.901123046875,51.0,227313.0,-114761.0,87882.0
51547.58544921875,52.0,224652.0,-113414.0,89229.0
51566.269775390625,53.0,222021.0,-112082.0,90561.0
51584.9541015625,54.0,219422.0,-110767.0,91876.0
51603.638427734375,55.0,216854.0,-109468.0,93175.0
51622.32275390625,56.0,214315.0,-108184.0,94459.0
51641.007080078125,57.0,211803.0,-106914.0,95729.0
51659.69140625,58.0,209320.0,-105659.0,96984.0
51678.375732421875,59.0,206868.0,-104419.0,98224.0
51697.06005859375,60.0,204445.0,-103196.0,99447.0
51715.744384765625,61.0,202049.0,-101987.0,100656.0
51734.4287109375,62.0,199679.0,-100796.0,101847.0
51753.113037109375,63.0,197334.0,-99621.0,103022.0
51771.79736328125,64.0,195012.0,-98461.0,104182.0
51790.481689453125,65.0,192716.0,-97318.0,105325.0
51809.166015625,66.0,190449.0,-96186.0,106457.0
51827.850341796875,67.0,188211.0,-95065.0,107578.0
51846.53466796875,68.0,186002.0,-93954.0,108689.0
51865.218994140625,69.0,183819.0,-92854.0,109789.0
51883.9033203125,70.0,181664.0,-91764.0,110879.0
51902.587646484375,71.0,179535.0,-90685.0,111958.0
51921.27197265625,72.0,177434.0,-89619.0,113024.0
51939.95654296875,73.0,175361.0,-88564.0,114079.0
51958.640869140625,74.0,173315.0,-87523.0,115120.0
51977.3251953125,75.0,171293.0,-86492.0,116151.0
51996.009521484375,76.0,169293.0,-85474.0,117169.0
52014.69384765625,77.0,167315.0,-84469.0,118174.0
52033.378173828125,78.0,165360.0,-83475.0,119168.0
52052.0625,79.0,163426.0,-82495.0,120148.0
52070.746826171875,80.0,161514.0,-81527.0,121116.0
52089.43115234375,81.0,159623.0,-80572.0,122071.0
52108.115478515625,82.0,157753.0,-79629.0,123014.0
52126.7998046875,83.0,155902.0,-78699.0,123944.0
52145.484130859375,84.0,154070.0,-77779.0,124864.0
52164.16845703125,85.0,152261.0,-76869.0,125774.0
52182.852783203125,86.0,150474.0,-75969.0,126674.0
52201.537109375,87.0,148708.0,-75080.0,127563.0
52220.221435546875,88.0,146961.0,-74201.0,128442.0
52238.90576171875,89.0,145234.0,-73334.0,129309.0
52257.590087890625,90.0,143528.0,-72476.0,130167.0
52276.2744140625,91.0,141843.0,-71627.0,131016.0
52294.958740234375,92.0,140180.0,-70787.0,131856.0
52313.64306640625,93.0,138538.0,-69955.0,132688.0
52332.327392578125,94.0,136918.0,-69132.0,133511.0
52351.01171875,95.0,135319.0,-68318.0,134325.0
52369.696044921875,96.0,133740.0,-67514.0,135129.0
52388.38037109375,97.0,132179.0,-66719.0,135924.0
52407.064697265625,98.0,130634.0,-65935.0,136708.0
52425.7490234375,99.0,129106.0,-65159.0,137484.0
52444.433349609375,100.0,127596.0,-64393.0,138250.0
52463.11767578125,101.0,126103.0,-63638.0,139005.0
52481.80224609375,102.0,124627.0,-62891.0,139752.0
52500.486572265625,103.0,123168.0,-62154.0,140489.0
52519.1708984375,104.0,121723.0,-61427.0,141216.0
52537.855224609375,105.0,120293.0,-60712.0,141931.0
52556.53955078125,106.0,118877.0,-60007.0,142636.0
52575.223876953125,107.0,117477.0,-59313.0,143330.0
52593.908203125,108.0,116095.0,-58626.0,144017.0
52612.592529296875,109.0,114728.0,-57945.0,144698.0
52631.27685546875,110.0,113382.0,-57270.0,145373.0
52649.961181640625,111.0,112053.0,-56601.0,146042.0
52668.6455078125,112.0,110742.0,-55937.0,146706.0
52687.329833984375,113.0,109447.0,-55279.0,147364.0
52706.01416015625,114.0,108167.0,-54628.0,148015.0
52724.698486328125,115.0,106901.0,-53984.0,148659.0
52743.3828125,116.0,105649.0,-53346.0,149297.0
52762.067138671875,117.0,104413.0,-52716.0,149927.0
52780.75146484375,118.0,103192.0,-52094.0,150549.0
52799.435791015625,119.0,101984.0,-51480.0,151163.0
52818.1201171875,120.0,100791.0,-50875.0,151768.0
52836.804443359375,121.0,99612.0,-50276.0,152367.0
52855.48876953125,122.0,98444.0,-49688.0,152955.0
52874.173095703125,123.0,97287.0,-49109.0,153534.0
52892.857421875,124.0,96143.0,-48535.0,154108.0
52911.541748046875,125.0,95013.0,-47969.0,154674.0
52930.22607421875,126.0,93898.0,-47408.0,155235.0
52948.910400390625,127.0,92797.0,-46855.0,155788.0
52967.5947265625,128.0,91709.0,-46308.0,156335.0
52986.279052734375,129.0,90636.0,-45766.0,156877.0
53004.96337890625,130.0,89576.0,-45229.0,157414.0
53023.64794921875,131.0,88527.0,-44698.0,157945.0
53042.332275390625,132.0,87490.0,-44173.0,158470.0
53061.0166015625,133.0,86464.0,-43653.0,158990.0
53079.700927734375,134.0,85452.0,-43140.0,159503.0
53098.38525390625,135.0,84451.0,-42633.0,160010.0
53117.069580078125,136.0,83464.0,-42132.0,160511.0
53135.75390625,137.0,82486.0,-41636.0,161007.0
53154.438232421875,138.0,81521.0,-41146.0,161497.0
53173.12255859375,139.0,80566.0,-40662.0,161981.0
53191.806884765625,140.0,79622.0,-40183.0,162460.0
53210.4912109375,141.0,78690.0,-39711.0,162932.0
53229.175537109375,142.0,77769.0,-39244.0,163399.0
53247.85986328125,143.0,76860.0,-38782.0,163861.0
53266.544189453125,144.0,75960.0,-38326.0,164317.0
53285.228515625,145.0,75072.0,-37874.0,164769.0
53303.912841796875,146.0,74193.0,-37430.0,165213.0
53322.59716796875,147.0,73326.0,-36991.0,165652.0
53341.281494140625,148.0,72467.0,-36558.0,166085.0
53359.9658203125,149.0,71618.0,-36134.0,166509.0
53378.650146484375,150.0,70775.0,-35717.0,166926.0
53397.33447265625,151.0,69939.0,-35306.0,167337.0
53416.018798828125,152.0,69111.0,-34901.0,167742.0
53434.703125,153.0,68294.0,-34500.0,168143.0
53453.387451171875,154.0,67488.0,-34102.0,168541.0
53472.07177734375,155.0,66694.0,-33705.0,168938.0
53490.756103515625,156.0,65912.0,-33311.0,169332.0
53509.4404296875,157.0,65141.0,-32920.0,169723.0
53528.124755859375,158.0,64380.0,-32531.0,170112.0
53546.80908203125,159.0,63627.0,-32146.0,170497.0
53565.49365234375,160.0,62885.0,-31764.0,170879.0
53584.177978515625,161.0,62151.0,-31388.0,171255.0
53602.8623046875,162.0,61425.0,-31017.0,171626.0
53621.546630859375,163.0,60708.0,-30650.0,171993.0
53640.23095703125,164.0,60000.0,-30289.0,172354.0
53658.915283203125,165.0,59300.0,-29932.0,172711.0
53677.599609375,166.0,58606.0,-29580.0,173063.0
53696.283935546875,167.0,57918.0,-29233.0,173410.0
53714.96826171875,168.0,57236.0,-28892.0,173751.0
53733.652587890625,169.0,56563.0,-28556.0,174087.0
53752.3369140625,170.0,55898.0,-28225.0,174418.0
53771.021240234375,171.0,55243.0,-27898.0,174745.0
53789.70556640625,172.0,54596.0,-27573.0,175070.0
53808.389892578125,173.0,53957.0,-27249.0,175394.0
53827.07421875,174.0,53326.0,-26927.0,175716.0
53845.758544921875,175.0,52703.0,-26610.0,176033.0
53864.44287109375,176.0,52084.0,-26297.0,176346.0
53883.127197265625,177.0,51472.0,-25989.0,176654.0
53901.8115234375,178.0,50867.0,-25683.0,176960.0
53920.495849609375,179.0,50272.0,-25381.0,177262.0
53939.18017578125,180.0,49684.0,-25083.0,177560.0
53957.864501953125,181.0,49104.0,-24788.0,177855.0
53976.548828125,182.0,48529.0,-24495.0,178148.0
53995.233154296875,183.0,47962.0,-24206.0,178437.0
54013.91748046875,184.0,47401.0,-23921.0,178722.0
54032.601806640625,185.0,46846.0,-23640.0,179003.0
54051.2861328125,186.0,46298.0,-23361.0,179282.0
54069.970458984375,187.0,45757.0,-23086.0,179557.0
54088.65478515625,188.0,45222.0,-22816.0,179827.0
54107.33935546875,189.0,44693.0,-22549.0,180094.0
54126.023681640625,190.0,44166.0,-22289.0,180354.0
54144.7080078125,191.0,43642.0,-22035.0,180608.0
54163.392333984375,192.0,43123.0,-21785.0,180858.0
54182.07666015625,193.0,42610.0,-21537.0,181106.0
54200.760986328125,194.0,42104.0,-21291.0,181352.0
54219.4453125,195.0,41608.0,-21046.0,181597.0
54238.129638671875,196.0,41120.0,-20800.0,181843.0
54256.81396484375,197.0,40641.0,-20554.0,182089.0
54275.498291015625,198.0,40168.0,-20310.0,182333.0
54294.1826171875,199.0,39700.0,-20067.0,182576.0
54312.866943359375,200.0,39239.0,-19828.0,182815.0
54331.55126953125,201.0,38783.0,-19592.0,183051.0
54350.235595703125,202.0,38332.0,-19356.0,183287.0
54368.919921875,203.0,37886.0,-19125.0,183518.0
54387.604248046875,204.0,37445.0,-18897.0,183746.0
54406.28857421875,205.0,37008.0,-18674.0,183969.0
54424.972900390625,206.0,36575.0,-18454.0,184189.0
54443.6572265625,207.0,36147.0,-18237.0,184406.0
54462.341552734375,208.0,35722.0,-18024.0,184619.0
54481.02587890625,209.0,35303.0,-17815.0,184828.0
54499.710205078125,210.0,34890.0,-17609.0,185034.0
54518.39453125,211.0,34480.0,-17405.0,185238.0
54537.078857421875,212.0,34072.0,-17205.0,185438.0
54555.76318359375,213.0,33667.0,-17006.0,185637.0
54574.447509765625,214.0,33268.0,-16809.0,185834.0
54593.1318359375,215.0,32875.0,-16613.0,186030.0
54611.816162109375,216.0,32488.0,-16418.0,186225.0
54630.50048828125,217.0,32107.0,-16225.0,186418.0
54649.18505859375,218.0,31731.0,-16033.0,186610.0
54667.869384765625,219.0,31360.0,-15843.0,186800.0
54686.5537109375,220.0,30994.0,-15655.0,186988.0
54705.238037109375,221.0,30631.0,-15471.0,187172.0
54723.92236328125,222.0,30272.0,-15289.0,187354.0
54742.606689453125,223.0,29918.0,-15109.0,187534.0
54761.291015625,224.0,29567.0,-14931.0,187712.0
54779.975341796875,225.0,29222.0,-14755.0,187888.0
54798.65966796875,226.0,28880.0,-14581.0,188062.0
54817.343994140625,227.0,28542.0,-14410.0,188233.0
54836.0283203125,228.0,28204.0,-14243.0,188400.0
54854.712646484375,229.0,27869.0,-14082.0,188561.0
54873.39697265625,230.0,27535.0,-13925.0,188718.0
54892.081298828125,231.0,27205.0,-13771.0,188872.0
54910.765625,232.0,26880.0,-13618.0,189025.0
54929.449951171875,233.0,26560.0,-13465.0,189178.0
54948.13427734375,234.0,26245.0,-13310.0,189333.0
54966.818603515625,235.0,25938.0,-13155.0,189488.0
54985.5029296875,236.0,25634.0,-12999.0,189644.0
55004.187255859375,237.0,25334.0,-12845.0,189798.0
55022.87158203125,238.0,25039.0,-12691.0,189952.0
55041.555908203125,239.0,24748.0,-12540.0,190103.0
55060.240234375,240.0,24460.0,-12391.0,190252.0
55078.924560546875,241.0,24175.0,-12242.0,190401.0
55097.60888671875,242.0,23893.0,-12096.0,190547.0
55116.293212890625,243.0,23615.0,-11950.0,190693.0
55134.9775390625,244.0,23341.0,-11807.0,190836.0
55153.661865234375,245.0,23067.0,-11668.0,190975.0
55172.34619140625,246.0,22796.0,-11531.0,191112.0
55191.03076171875,247.0,22527.0,-11398.0,191245.0
55209.715087890625,248.0,22260.0,-11266.0,191377.0
55228.3994140625,249.0,21996.0,-11136.0,191507.0
55247.083740234375,250.0,21736.0,-11007.0,191636.0
55265.76806640625,251.0,21479.0,-10878.0,191765.0
55284.452392578125,252.0,21228.0,-10750.0,191893.0
55303.13671875,253.0,20980.0,-10624.0,192019.0
55321.821044921875,254.0,20737.0,-10499.0,192144.0
55340.50537109375,255.0,20496.0,-10374.0,192269.0
55359.189697265625,256.0,20258.0,-10251.0,192392.0
55377.8740234375,257.0,20022.0,-10130.0,192513.0
55396.558349609375,258.0,19790.0,-10010.0,192633.0
55415.24267578125,259.0,19561.0,-9892.0,192751.0
55433.927001953125,260.0,19335.0,-9775.0,192868.0
55452.611328125,261.0,19113.0,-9658.0,192985.0
55471.295654296875,262.0,18892.0,-9542.0,193101.0
55489.97998046875,263.0,18673.0,-9429.0,193214.0
55508.664306640625,264.0,18453.0,-9316.0,193327.0
55527.3486328125,265.0,18237.0,-9207.0,193436.0
55546.032958984375,266.0,18022.0,-9099.0,193544.0
55564.71728515625,267.0,17811.0,-8992.0,193651.0
55583.401611328125,268.0,17600.0,-8889.0,193754.0
55602.0859375,269.0,17390.0,-8788.0,193855.0
55620.770263671875,270.0,17182.0,-8692.0,193951.0
55639.45458984375,271.0,16976.0,-8597.0,194046.0
55658.138916015625,272.0,16773.0,-8504.0,194139.0
55676.8232421875,273.0,16572.0,-8411.0,194232.0
55695.507568359375,274.0,16374.0,-8315.0,194328.0
55714.19189453125,275.0,16180.0,-8219.0,194424.0
55732.87646484375,276.0,15989.0,-8122.0,194521.0
55751.560791015625,277.0,15802.0,-8024.0,194619.0
55770.2451171875,278.0,15619.0,-7927.0,194716.0
55788.929443359375,279.0,15439.0,-7831.0,194812.0
55807.61376953125,280.0,15260.0,-7737.0,194906.0
55826.298095703125,281.0,15081.0,-7645.0,194998.0
55844.982421875,282.0,14904.0,-7552.0,195091.0
55863.666748046875,283.0,14731.0,-7461.0,195182.0
55882.35107421875,284.0,14559.0,-7373.0,195270.0
55901.035400390625,285.0,14388.0,-7287.0,195356.0
55919.7197265625,286.0,14219.0,-7202.0,195441.0
55938.404052734375,287.0,14051.0,-7119.0,195524.0
55957.08837890625,288.0,13885.0,-7036.0,195607.0
55975.772705078125,289.0,13721.0,-6955.0,195688.0
55994.45703125,290.0,13562.0,-6874.0,195769.0
56013.141357421875,291.0,13407.0,-6793.0,195850.0
56031.82568359375,292.0,13252.0,-6713.0,195930.0
56050.510009765625,293.0,13099.0,-6635.0,196008.0
56069.1943359375,294.0,12946.0,-6556.0,196087.0
56087.878662109375,295.0,12796.0,-6478.0,196165.0
56106.56298828125,296.0,12647.0,-6400.0,196243.0
56125.247314453125,297.0,12500.0,-6323.0,196320.0
56143.931640625,298.0,12353.0,-6247.0,196396.0
56162.615966796875,299.0,12207.0,-6172.0,196471.0
56181.30029296875,300.0,12062.0,-6098.0,196545.0
56199.984619140625,301.0,11920.0,-6025.0,196618.0
56218.6689453125,302.0,11780.0,-5954.0,196689.0
56237.353271484375,303.0,11643.0,-5884.0,196759.0
56256.03759765625,304.0,11510.0,-5815.0,196828.0
56274.72216796875,305.0,11378.0,-5746.0,196897.0
56293.406494140625,306.0,11248.0,-5678.0,196965.0
56312.0908203125,307.0,11119.0,-5610.0,197033.0
56330.775146484375,308.0,10990.0,-5542.0,197101.0
56349.45947265625,309.0,10861.0,-5479.0,197164.0
56368.143798828125,310.0,10729.0,-5419.0,197224.0
56386.828125,311.0,10597.0,-5362.0,197281.0
56405.512451171875,312.0,10465.0,-5308.0,197335.0
56424.19677734375,313.0,10338.0,-5254.0,197389.0
56442.881103515625,314.0,10216.0,-5198.0,197445.0
56461.5654296875,315.0,10097.0,-5139.0,197504.0
56480.249755859375,316.0,9983.0,-5077.0,197566.0
56498.93408203125,317.0,9870.0,-5015.0,197628.0
56517.618408203125,318.0,9758.0,-4952.0,197691.0
56536.302734375,319.0,9647.0,-4889.0,197754.0
56554.987060546875,320.0,9537.0,-4828.0,197815.0
56573.67138671875,321.0,9429.0,-4768.0,197875.0
56592.355712890625,322.0,9323.0,-4708.0,197935.0
56611.0400390625,323.0,9218.0,-4649.0,197994.0
56629.724365234375,324.0,9114.0,-4592.0,198051.0
56648.40869140625,325.0,9010.0,-4534.0,198109.0
56667.093017578125,326.0,8906.0,-4480.0,198163.0
56685.77734375,327.0,8802.0,-4427.0,198216.0
56704.461669921875,328.0,8697.0,-4378.0,198265.0
56723.14599609375,329.0,8590.0,-4330.0,198313.0
56741.830322265625,330.0,8485.0,-4282.0,198361.0
56760.5146484375,331.0,8380.0,-4234.0,198409.0
56779.198974609375,332.0,8279.0,-4185.0,198458.0
56797.88330078125,333.0,8180.0,-4136.0,198507.0
56816.56787109375,334.0,8084.0,-4087.0,198556.0
56835.252197265625,335.0,7991.0,-4038.0,198605.0
56853.9365234375,336.0,7901.0,-3989.0,198654.0
56872.620849609375,337.0,7812.0,-3939.0,198704.0
56891.30517578125,338.0,7725.0,-3890.0,198753.0
56909.989501953125,339.0,7636.0,-3842.0,198801.0
56928.673828125,340.0,7549.0,-3795.0,198848.0
56947.358154296875,341.0,7461.0,-3749.0,198894.0
56966.04248046875,342.0,7374.0,-3704.0,198939.0
56984.726806640625,343.0,7288.0,-3659.0,198984.0
57003.4111328125,344.0,7204.0,-3614.0,199029.0
57022.095458984375,345.0,7120.0,-3571.0,199072.0
57040.77978515625,346.0,7035.0,-3528.0,199115.0
57059.464111328125,347.0,6951.0,-3486.0,199157.0
57078.1484375,348.0,6868.0,-3445.0,199198.0
57096.832763671875,349.0,6788.0,-3406.0,199237.0
57115.51708984375,350.0,6710.0,-3366.0,199277.0
57134.201416015625,351.0,6633.0,-3326.0,199317.0
57152.8857421875,352.0,6554.0,-3289.0,199354.0
57171.570068359375,353.0,6474.0,-3255.0,199388.0
57190.25439453125,354.0,6393.0,-3223.0,199420.0
57208.938720703125,355.0,6313.0,-3192.0,199451.0
57227.623046875,356.0,6233.0,-3162.0,199481.0
57246.307373046875,357.0,6154.0,-3133.0,199510.0
57264.99169921875,358.0,6078.0,-3103.0,199540.0
57283.676025390625,359.0,6005.0,-3070.0,199573.0
57302.3603515625,360.0,5936.0,-3035.0,199608.0
57321.044677734375,361.0,5869.0,-2998.0,199645.0
57339.72900390625,362.0,5805.0,-2959.0,199684.0
57358.41357421875,363.0,5743.0,-2918.0,199725.0
57377.097900390625,364.0,5682.0,-2878.0,199765.0
57395.7822265625,365.0,5619.0,-2838.0,199805.0
57414.466552734375,366.0,5556.0,-2800.0,199843.0
57433.15087890625,367.0,5492.0,-2762.0,199881.0
57451.835205078125,368.0,5430.0,-2727.0,199916.0
57470.51953125,369.0,5368.0,-2693.0,199950.0
57489.203857421875,370.0,5305.0,-2661.0,199982.0
57507.88818359375,371.0,5240.0,-2632.0,200011.0
57526.572509765625,372.0,5176.0,-2604.0,200039.0
57545.2568359375,373.0,5111.0,-2577.0,200066.0
57563.941162109375,374.0,5048.0,-2550.0,200093.0
57582.62548828125,375.0,4987.0,-2522.0,200121.0
57601.309814453125,376.0,4928.0,-2495.0,200148.0
57619.994140625,377.0,4870.0,-2465.0,200178.0
57638.678466796875,378.0,4815.0,-2434.0,200209.0
57657.36279296875,379.0,4760.0,-2402.0,200241.0
57676.047119140625,380.0,4707.0,-2370.0,200273.0
57694.7314453125,381.0,4654.0,-2338.0,200305.0
57713.415771484375,382.0,4601.0,-2308.0,200335.0
57732.10009765625,383.0,4547.0,-2279.0,200364.0
57750.784423828125,384.0,4495.0,-2251.0,200392.0
57769.46875,385.0,4446.0,-2224.0,200419.0
57788.153076171875,386.0,4399.0,-2196.0,200447.0
57806.83740234375,387.0,4352.0,-2169.0,200474.0
57825.521728515625,388.0,4304.0,-2141.0,200502.0
57844.2060546875,389.0,4255.0,-2114.0,200529.0
57862.890380859375,390.0,4206.0,-2089.0,200554.0
57881.57470703125,391.0,4157.0,-2063.0,200580.0
57900.25927734375,392.0,4105.0,-2039.0,200604.0
57918.943603515625,393.0,4051.0,-2017.0,200626.0
57937.6279296875,394.0,3996.0,-1996.0,200647.0
57956.312255859375,395.0,3939.0,-1979.0,200664.0
57974.99658203125,396.0,3881.0,-1965.0,200678.0
57993.680908203125,397.0,3825.0,-1952.0,200691.0
58012.365234375,398.0,3772.0,-1938.0,200705.0
58031.049560546875,399.0,3722.0,-1922.0,200721.0
58049.73388671875,400.0,3675.0,-1904.0,200739.0
58068.418212890625,401.0,3631.0,-1882.0,200761.0
58087.1025390625,402.0,3590.0,-1859.0,200784.0
58105.786865234375,403.0,3552.0,-1833.0,200810.0
58124.47119140625,404.0,3516.0,-1807.0,200836.0
58143.155517578125,405.0,3481.0,-1780.0,200863.0
58161.83984375,406.0,3447.0,-1753.0,200890.0
58180.524169921875,407.0,3412.0,-1725.0,200918.0
58199.20849609375,408.0,3377.0,-1700.0,200943.0
58217.892822265625,409.0,3341.0,-1676.0,200967.0
58236.5771484375,410.0,3304.0,-1655.0,200988.0
58255.261474609375,411.0,3266.0,-1635.0,201008.0
58273.94580078125,412.0,3226.0,-1617.0,201026.0
58292.630126953125,413.0,3190.0,-1601.0,201042.0
58311.314453125,414.0,3153.0,-1585.0,201058.0
58329.998779296875,415.0,3116.0,-1571.0,201072.0
58348.68310546875,416.0,3079.0,-1555.0,201088.0
58367.367431640625,417.0,3044.0,-1539.0,201104.0
58386.0517578125,418.0,3010.0,-1521.0,201122.0
58404.736083984375,419.0,2977.0,-1501.0,201142.0
58423.42041015625,420.0,2944.0,-1480.0,201163.0
58442.10498046875,421.0,2912.0,-1458.0,201185.0
58460.789306640625,422.0,2880.0,-1436.0,201207.0
58479.4736328125,423.0,2848.0,-1416.0,201227.0
58498.157958984375,424.0,2816.0,-1397.0,201246.0
58516.84228515625,425.0,2784.0,-1377.0,201266.0
58535.526611328125,426.0,2752.0,-1359.0,201284.0
58554.2109375,427.0,2722.0,-1340.0,201303.0
58572.895263671875,428.0,2692.0,-1322.0,201321.0
58591.57958984375,429.0,2664.0,-1304.0,201339.0
58610.263916015625,430.0,2636.0,-1288.0,201355.0
58628.9482421875,431.0,2606.0,-1271.0,201372.0
58647.632568359375,432.0,2577.0,-1257.0,201386.0
58666.31689453125,433.0,2547.0,-1244.0,201399.0
58685.001220703125,434.0,2514.0,-1236.0,201407.0
58703.685546875,435.0,2480.0,-1231.0,201412.0
58722.369873046875,436.0,2442.0,-1227.0,201416.0
58741.05419921875,437.0,2404.0,-1223.0,201420.0
58759.738525390625,438.0,2366.0,-1217.0,201426.0
58778.4228515625,439.0,2331.0,-1210.0,201433.0
58797.107177734375,440.0,2301.0,-1197.0,201446.0
58815.79150390625,441.0,2274.0,-1182.0,201461.0
58834.475830078125,442.0,2251.0,-1163.0,201480.0
58853.16015625,443.0,2232.0,-1143.0,201500.0
58871.844482421875,444.0,2213.0,-1121.0,201522.0
58890.52880859375,445.0,2194.0,-1100.0,201543.0
58909.213134765625,446.0,2176.0,-1079.0,201564.0
58927.8974609375,447.0,2157.0,-1061.0,201582.0
58946.581787109375,448.0,2134.0,-1043.0,201600.0
58965.26611328125,449.0,2111.0,-1026.0,201617.0
58983.95068359375,450.0,2089.0,-1011.0,201632.0
59002.635009765625,451.0,2064.0,-999.0,201644.0
59021.3193359375,452.0,2037.0,-990.0,201653.0
59040.003662109375,453.0,2009.0,-983.0,201660.0
59058.68798828125,454.0,1980.0,-976.0,201667.0
59077.372314453125,455.0,1954.0,-970.0,201673.0
59096.056640625,456.0,1928.0,-962.0,201681.0
59114.740966796875,457.0,1906.0,-952.0,201691.0
59133.42529296875,458.0,1885.0,-941.0,201702.0
59152.109619140625,459.0,1866.0,-929.0,201714.0
59170.7939453125,460.0,1846.0,-916.0,201727.0
59189.478271484375,461.0,1824.0,-902.0,201741.0
59208.16259765625,462.0,1804.0,-888.0,201755.0
59226.846923828125,463.0,1783.0,-874.0,201769.0
59245.53125,464.0,1764.0,-861.0,201782.0
59264.215576171875,465.0,1746.0,-848.0,201795.0
59282.89990234375,466.0,1728.0,-835.0,201808.0
59301.584228515625,467.0,1713.0,-822.0,201821.0
59320.2685546875,468.0,1697.0,-811.0,201832.0
59338.952880859375,469.0,1681.0,-799.0,201844.0
59357.63720703125,470.0,1662.0,-788.0,201855.0
59376.321533203125,471.0,1644.0,-778.0,201865.0
59395.005859375,472.0,1626.0,-767.0,201876.0
59413.690185546875,473.0,1607.0,-757.0,201886.0
59432.37451171875,474.0,1587.0,-750.0,201893.0
59451.058837890625,475.0,1564.0,-744.0,201899.0
59469.7431640625,476.0,1539.0,-742.0,201901.0
59488.427490234375,477.0,1512.0,-745.0,201898.0
59507.11181640625,478.0,1482.0,-749.0,201894.0
59525.79638671875,479.0,1453.0,-752.0,201891.0
59544.480712890625,480.0,1427.0,-753.0,201890.0
59563.1650390625,481.0,1407.0,-750.0,201893.0
59581.849365234375,482.0,1391.0,-743.0,201900.0
59600.53369140625,483.0,1377.0,-733.0,201910.0
59619.218017578125,484.0,1366.0,-719.0,201924.0
59637.90234375,485.0,1355.0,-703.0,201940.0
59656.586669921875,486.0,1345.0,-686.0,201957.0
59675.27099609375,487.0,1335.0,-670.0,201973.0
59693.955322265625,488.0,1325.0,-654.0,201989.0
59712.6396484375,489.0,1315.0,-641.0,202002.0
59731.323974609375,490.0,1305.0,-628.0,202015.0
59750.00830078125,491.0,1295.0,-617.0,202026.0
59768.692626953125,492.0,1284.0,-607.0,202036.0
59787.376953125,493.0,1271.0,-599.0,202044.0
59806.061279296875,494.0,1255.0,-594.0,202049.0
59824.74560546875,495.0,1235.0,-590.0,202053.0
59843.429931640625,496.0,1215.0,-587.0,202056.0
59862.1142578125,497.0,1198.0,-583.0,202060.0
59880.798583984375,498.0,1182.0,-578.0,202065.0
59899.48291015625,499.0,1168.0,-571.0,202072.0
59918.167236328125,500.0,1156.0,-562.0,202081.0
59936.8515625,501.0,1145.0,-553.0,202090.0
59955.535888671875,502.0,1134.0,-543.0,202100.0
59974.22021484375,503.0,1122.0,-533.0,202110.0
59992.904541015625,504.0,1111.0,-524.0,202119.0
60011.5888671875,505.0,1101.0,-515.0,202128.0
60030.273193359375,506.0,1091.0,-507.0,202136.0
60048.95751953125,507.0,1081.0,-500.0,202143.0
60067.64208984375,508.0,1070.0,-491.0,202152.0
60086.326416015625,509.0,1060.0,-483.0,202160.0
60105.0107421875,510.0,1051.0,-475.0,202168.0
60123.695068359375,511.0,1041.0,-468.0,202175.0
60142.37939453125,512.0,1030.0,-460.0,202183.0
60161.063720703125,513.0,1022.0,-452.0,202191.0
60179.748046875,514.0,1015.0,-443.0,202200.0
60198.432373046875,515.0,1010.0,-432.0,202211.0
60217.11669921875,516.0,1004.0,-425.0,202218.0
60235.801025390625,517.0,995.0,-419.0,202224.0
60254.4853515625,518.0,980.0,-419.0,202224.0
60273.169677734375,519.0,960.0,-425.0,202218.0
60291.85400390625,520.0,937.0,-434.0,202209.0
60310.538330078125,521.0,912.0,-443.0,202200.0
60329.22265625,522.0,888.0,-452.0,202191.0
60347.906982421875,523.0,865.0,-458.0,202185.0
60366.59130859375,524.0,843.0,-462.0,202181.0
60385.275634765625,525.0,828.0,-459.0,202184.0
60403.9599609375,526.0,815.0,-453.0,202190.0
60422.644287109375,527.0,806.0,-443.0,202200.0
60441.32861328125,528.0,801.0,-432.0,202211.0
60460.012939453125,529.0,797.0,-419.0,202224.0
60478.697265625,530.0,794.0,-407.0,202236.0
60497.381591796875,531.0,792.0,-396.0,202247.0
60516.06591796875,532.0,790.0,-387.0,202256.0
60534.750244140625,533.0,783.0,-378.0,202265.0
60553.4345703125,534.0,777.0,-371.0,202272.0
60572.118896484375,535.0,770.0,-363.0,202280.0
60590.80322265625,536.0,764.0,-356.0,202287.0
60609.48779296875,537.0,757.0,-352.0,202291.0
60628.172119140625,538.0,746.0,-350.0,202293.0
60646.8564453125,539.0,733.0,-349.0,202294.0
60665.540771484375,540.0,720.0,-349.0,202294.0
60684.22509765625,541.0,708.0,-347.0,202296.0
60702.909423828125,542.0,700.0,-345.0,202298.0
60721.59375,543.0,694.0,-342.0,202301.0
60740.278076171875,544.0,690.0,-336.0,202307.0
60758.96240234375,545.0,688.0,-329.0,202314.0
60777.646728515625,546.0,685.0,-322.0,202321.0
60796.3310546875,547.0,680.0,-314.0,202329.0
60815.015380859375,548.0,676.0,-307.0,202336.0
60833.69970703125,549.0,672.0,-300.0,202343.0
60852.384033203125,550.0,669.0,-293.0,202350.0
60871.068359375,551.0,665.0,-287.0,202356.0
60889.752685546875,552.0,660.0,-279.0,202364.0
60908.43701171875,553.0,654.0,-273.0,202370.0
60927.121337890625,554.0,645.0,-268.0,202375.0
60945.8056640625,555.0,637.0,-264.0,202379.0
60964.489990234375,556.0,630.0,-260.0,202383.0
60983.17431640625,557.0,624.0,-256.0,202387.0
61001.858642578125,558.0,618.0,-252.0,202391.0
61020.54296875,559.0,612.0,-249.0,202394.0
61039.227294921875,560.0,607.0,-246.0,202397.0
61057.91162109375,561.0,601.0,-243.0,202400.0
61076.595947265625,562.0,592.0,-243.0,202400.0
61095.2802734375,563.0,577.0,-248.0,202395.0
61113.964599609375,564.0,557.0,-260.0,202383.0
61132.64892578125,565.0,534.0,-273.0,202370.0
61151.33349609375,566.0,513.0,-285.0,202358.0
61170.017822265625,567.0,497.0,-293.0,202350.0
61188.7021484375,568.0,486.0,-295.0,202348.0
61207.386474609375,569.0,481.0,-294.0,202349.0
61226.07080078125,570.0,478.0,-289.0,202354.0
61244.755126953125,571.0,476.0,-282.0,202361.0
61263.439453125,572.0,477.0,-273.0,202370.0
61282.123779296875,573.0,477.0,-262.0,202381.0
61300.80810546875,574.0,478.0,-253.0,202390.0
61319.492431640625,575.0,476.0,-244.0,202399.0
61338.1767578125,576.0,473.0,-237.0,202406.0
61356.861083984375,577.0,468.0,-232.0,202411.0
61375.54541015625,578.0,464.0,-227.0,202416.0
61394.229736328125,579.0,460.0,-221.0,202422.0
61412.9140625,580.0,459.0,-216.0,202427.0
61431.598388671875,581.0,456.0,-211.0,202432.0
61450.28271484375,582.0,452.0,-209.0,202434.0
61468.967041015625,583.0,446.0,-209.0,202434.0
61487.6513671875,584.0,439.0,-210.0,202433.0
61506.335693359375,585.0,433.0,-210.0,202433.0
61525.02001953125,586.0,428.0,-209.0,202434.0
61543.704345703125,587.0,423.0,-206.0,202437.0
61562.388671875,588.0,420.0,-202.0,202441.0
61581.072998046875,589.0,418.0,-197.0,202446.0
61599.75732421875,590.0,417.0,-191.0,202452.0
61618.441650390625,591.0,417.0,-184.0,202459.0
61637.1259765625,592.0,416.0,-178.0,202465.0
61655.810302734375,593.0,415.0,-173.0,202470.0
61674.49462890625,594.0,412.0,-169.0,202474.0
61693.17919921875,595.0,408.0,-165.0,202478.0
61711.863525390625,596.0,404.0,-161.0,202482.0
61730.5478515625,597.0,400.0,-158.0,202485.0
61749.232177734375,598.0,393.0,-155.0,202488.0
61767.91650390625,599.0,385.0,-153.0,202490.0
61786.600830078125,600.0,379.0,-151.0,202492.0
61805.28515625,601.0,374.0,-150.0,202493.0
61823.969482421875,602.0,370.0,-149.0,202494.0
61842.65380859375,603.0,364.0,-152.0,202491.0
61861.338134765625,604.0,353.0,-160.0,202483.0
61880.0224609375,605.0,340.0,-171.0,202472.0
61898.706787109375,606.0,325.0,-182.0,202461.0
61917.39111328125,607.0,312.0,-191.0,202452.0
61936.075439453125,608.0,301.0,-197.0,202446.0
61954.759765625,609.0,294.0,-199.0,202444.0
61973.444091796875,610.0,291.0,-196.0,202447.0
61992.12841796875,611.0,290.0,-190.0,202453.0
62010.812744140625,612.0,291.0,-182.0,202461.0
62029.4970703125,613.0,294.0,-174.0,202469.0
62048.181396484375,614.0,297.0,-165.0,202478.0
62066.86572265625,615.0,299.0,-157.0,202486.0
62085.550048828125,616.0,299.0,-151.0,202492.0
62104.234375,617.0,300.0,-145.0,202498.0
62122.918701171875,618.0,300.0,-140.0,202503.0
62141.60302734375,619.0,302.0,-136.0,202507.0
62160.287353515625,620.0,302.0,-131.0,202512.0
62178.9716796875,621.0,303.0,-129.0,202514.0
62197.656005859375,622.0,300.0,-129.0,202514.0
62216.34033203125,623.0,295.0,-132.0,202511.0
62235.02490234375,624.0,288.0,-136.0,202507.0
62253.709228515625,625.0,280.0,-139.0,202504.0
62272.3935546875,626.0,272.0,-141.0,202502.0
62291.077880859375,627.0,264.0,-141.0,202502.0
62309.76220703125,628.0,260.0,-140.0,202503.0
62328.446533203125,629.0,258.0,-135.0,202508.0
62347.130859375,630.0,259.0,-130.0,202513.0
62365.815185546875,631.0,261.0,-124.0,202519.0
62384.49951171875,632.0,263.0,-119.0,202524.0
62403.183837890625,633.0,264.0,-114.0,202529.0
62421.8681640625,634.0,264.0,-109.0,202534.0
62440.552490234375,635.0,263.0,-102.0,202541.0
62459.23681640625,636.0,262.0,-97.0,202546.0
62477.921142578125,637.0,261.0,-93.0,202550.0
62496.60546875,638.0,261.0,-90.0,202553.0
62515.289794921875,639.0,261.0,-87.0,202556.0
62533.97412109375,640.0,262.0,-85.0,202558.0
62552.658447265625,641.0,260.0,-83.0,202560.0
62571.3427734375,642.0,258.0,-83.0,202560.0
62590.027099609375,643.0,256.0,-82.0,202561.0
62608.71142578125,644.0,254.0,-82.0,202561.0
62627.395751953125,645.0,247.0,-85.0,202558.0
62646.080078125,646.0,235.0,-94.0,202549.0
62664.764404296875,647.0,219.0,-107.0,202536.0
62683.44873046875,648.0,203.0,-121.0,202522.0
62702.133056640625,649.0,187.0,-132.0,202511.0
62720.8173828125,650.0,174.0,-142.0,202501.0
62739.501708984375,651.0,166.0,-145.0,202498.0
62758.18603515625,652.0,162.0,-145.0,202498.0
62776.87060546875,653.0,163.0,-141.0,202502.0
62795.554931640625,654.0,166.0,-135.0,202508.0
62814.2392578125,655.0,172.0,-127.0,202516.0
62832.923583984375,656.0,178.0,-119.0,202524.0
62851.60791015625,657.0,184.0,-110.0,202533.0
62870.292236328125,658.0,189.0,-103.0,202540.0
62888.9765625,659.0,192.0,-97.0,202546.0
62907.660888671875,660.0,193.0,-91.0,202552.0
62926.34521484375,661.0,193.0,-87.0,202556.0
62945.029541015625,662.0,193.0,-83.0,202560.0
62963.7138671875,663.0,191.0,-81.0,202562.0
62982.398193359375,664.0,186.0,-82.0,202561.0
63001.08251953125,665.0,181.0,-84.0,202559.0
63019.766845703125,666.0,174.0,-88.0,202555.0
63038.451171875,667.0,167.0,-91.0,202552.0
63057.135498046875,668.0,160.0,-92.0,202551.0
63075.81982421875,669.0,154.0,-92.0,202551.0
63094.504150390625,670.0,149.0,-89.0,202554.0
63113.1884765625,671.0,147.0,-86.0,202557.0
63131.872802734375,672.0,146.0,-83.0,202560.0
63150.55712890625,673.0,147.0,-80.0,202563.0
63169.241455078125,674.0,149.0,-78.0,202565.0
63187.92578125,675.0,151.0,-75.0,202568.0
63206.610107421875,676.0,152.0,-71.0,202572.0
63225.29443359375,677.0,154.0,-67.0,202576.0
63243.978759765625,678.0,156.0,-64.0,202579.0
63262.6630859375,679.0,158.0,-61.0,202582.0
63281.347412109375,680.0,158.0,-59.0,202584.0
63300.03173828125,681.0,158.0,-55.0,202588.0
63318.71630859375,682.0,158.0,-52.0,202591.0
63337.400634765625,683.0,157.0,-50.0,202593.0
63356.0849609375,684.0,156.0,-47.0,202596.0
63374.769287109375,685.0,155.0,-44.0,202599.0
63393.45361328125,686.0,153.0,-43.0,202600.0
63412.137939453125,687.0,152.0,-42.0,202601.0
63430.822265625,688.0,149.0,-45.0,202598.0
63449.506591796875,689.0,141.0,-53.0,202590.0
63468.19091796875,690.0,129.0,-65.0,202578.0
63486.875244140625,691.0,114.0,-78.0,202565.0
63505.5595703125,692.0,102.0,-89.0,202554.0
63524.243896484375,693.0,93.0,-98.0,202545.0
63542.92822265625,694.0,86.0,-104.0,202539.0
63561.612548828125,695.0,83.0,-105.0,202538.0
63580.296875,696.0,83.0,-101.0,202542.0
63598.981201171875,697.0,87.0,-97.0,202546.0
63617.66552734375,698.0,92.0,-91.0,202552.0
63636.349853515625,699.0,97.0,-84.0,202559.0
63655.0341796875,700.0,102.0,-77.0,202566.0
63673.718505859375,701.0,104.0,-70.0,202573.0
63692.40283203125,702.0,106.0,-64.0,202579.0
63711.087158203125,703.0,108.0,-60.0,202583.0
63729.771484375,704.0,108.0,-56.0,202587.0
63748.455810546875,705.0,107.0,-52.0,202591.0
63767.14013671875,706.0,106.0,-52.0,202591.0
63785.824462890625,707.0,103.0,-54.0,202589.0
63804.5087890625,708.0,100.0,-57.0,202586.0
63823.193115234375,709.0,98.0,-62.0,202581.0
63841.87744140625,710.0,96.0,-65.0,202578.0
63860.56201171875,711.0,95.0,-66.0,202577.0
63879.246337890625,712.0,94.0,-66.0,202577.0
63897.9306640625,713.0,93.0,-65.0,202578.0
63916.614990234375,714.0,90.0,-63.0,202580.0
63935.29931640625,715.0,88.0,-61.0,202582.0
63953.983642578125,716.0,88.0,-59.0,202584.0
63972.66796875,717.0,91.0,-56.0,202587.0
63991.352294921875,718.0,95.0,-51.0,202592.0
64010.03662109375,719.0,99.0,-46.0,202597.0
64028.720947265625,720.0,102.0,-43.0,202600.0
64047.4052734375,721.0,104.0,-39.0,202604.0
64066.089599609375,722.0,106.0,-37.0,202606.0
64084.77392578125,723.0,108.0,-34.0,202609.0
64103.458251953125,724.0,109.0,-33.0,202610.0
64122.142578125,725.0,107.0,-32.0,202611.0
64140.826904296875,726.0,106.0,-30.0,202613.0
64159.51123046875,727.0,104.0,-29.0,202614.0
64178.195556640625,728.0,104.0,-29.0,202614.0
64196.8798828125,729.0,104.0,-28.0,202615.0
64215.564208984375,730.0,102.0,-29.0,202614.0
64234.24853515625,731.0,100.0,-31.0,202612.0
64252.932861328125,732.0,94.0,-36.0,202607.0
64271.6171875,733.0,86.0,-45.0,202598.0
64290.301513671875,734.0,74.0,-56.0,202587.0
64308.98583984375,735.0,60.0,-69.0,202574.0
64327.670166015625,736.0,47.0,-79.0,202564.0
64346.3544921875,737.0,38.0,-86.0,202557.0
64365.038818359375,738.0,34.0,-90.0,202553.0
64383.72314453125,739.0,34.0,-90.0,202553.0
64402.40771484375,740.0,38.0,-87.0,202556.0
64421.092041015625,741.0,43.0,-80.0,202563.0
64439.7763671875,742.0,49.0,-73.0,202570.0
64458.460693359375,743.0,54.0,-64.0,202579.0
64477.14501953125,744.0,58.0,-56.0,202587.0
64495.829345703125,745.0,64.0,-49.0,202594.0
64514.513671875,746.0,70.0,-43.0,202600.0
64533.197998046875,747.0,74.0,-37.0,202606.0
64551.88232421875,748.0,77.0,-34.0,202609.0
64570.566650390625,749.0,77.0,-32.0,202611.0
64589.2509765625,750.0,74.0,-32.0,202611.0
64607.935302734375,751.0,69.0,-35.0,202608.0
64626.61962890625,752.0,63.0,-38.0,202605.0
64645.303955078125,753.0,57.0,-43.0,202600.0
64663.98828125,754.0,51.0,-47.0,202596.0
64682.672607421875,755.0,48.0,-51.0,202592.0
64701.35693359375,756.0,45.0,-51.0,202592.0
64720.041259765625,757.0,45.0,-51.0,202592.0
64738.7255859375,758.0,45.0,-48.0,202595.0
64757.409912109375,759.0,46.0,-45.0,202598.0
64776.09423828125,760.0,47.0,-42.0,202601.0
64794.778564453125,761.0,51.0,-39.0,202604.0
64813.462890625,762.0,56.0,-35.0,202608.0
64832.147216796875,763.0,61.0,-32.0,202611.0
64850.83154296875,764.0,66.0,-28.0,202615.0
64869.515869140625,765.0,69.0,-26.0,202617.0
64888.2001953125,766.0,69.0,-24.0,202619.0
64906.884521484375,767.0,67.0,-24.0,202619.0
64925.56884765625,768.0,64.0,-24.0,202619.0
64944.25341796875,769.0,59.0,-24.0,202619.0
64962.937744140625,770.0,51.0,-24.0,202619.0
64981.6220703125,771.0,44.0,-27.0,202616.0
65000.306396484375,772.0,34.0,-33.0,202610.0
65018.99072265625,773.0,25.0,-42.0,202601.0
65037.675048828125,774.0,15.0,-53.0,202590.0
65056.359375,775.0,6.0,-63.0,202580.0
65075.043701171875,776.0,-1.0,-71.0,202572.0
65093.72802734375,777.0,-7.0,-75.0,202568.0
65112.412353515625,778.0,-8.0,-75.0,202568.0
65131.0966796875,779.0,-7.0,-73.0,202570.0
65149.781005859375,780.0,-5.0,-69.0,202574.0
65168.46533203125,781.0,-1.0,-63.0,202580.0
65187.149658203125,782.0,5.0,-55.0,202588.0
65205.833984375,783.0,12.0,-48.0,202595.0
65224.518310546875,784.0,19.0,-41.0,202602.0
65243.20263671875,785.0,25.0,-35.0,202608.0
65261.886962890625,786.0,30.0,-29.0,202614.0
65280.5712890625,787.0,31.0,-25.0,202618.0
65299.255615234375,788.0,32.0,-23.0,202620.0
65317.93994140625,789.0,32.0,-22.0,202621.0
65336.624267578125,790.0,30.0,-24.0,202619.0
65355.30859375,791.0,27.0,-28.0,202615.0
65373.992919921875,792.0,23.0,-34.0,202609.0
65392.67724609375,793.0,17.0,-39.0,202604.0
65411.361572265625,794.0,12.0,-43.0,202600.0
65430.0458984375,795.0,8.0,-45.0,202598.0
65448.730224609375,796.0,7.0,-47.0,202596.0
65467.41455078125,797.0,8.0,-45.0,202598.0
65486.09912109375,798.0,11.0,-42.0,202601.0
65504.783447265625,799.0,15.0,-38.0,202605.0
65523.4677734375,800.0,16.0,-35.0,202608.0
65542.15209960938,801.0,18.0,-31.0,202612.0
65560.83642578125,802.0,20.0,-28.0,202615.0
65579.52075195312,803.0,23.0,-24.0,202619.0
65598.205078125,804.0,25.0,-21.0,202622.0
65616.88940429688,805.0,26.0,-19.0,202624.0
65635.57373046875,806.0,29.0,-17.0,202626.0
65654.25805664062,807.0,33.0,-16.0,202627.0
65672.9423828125,808.0,36.0,-14.0,202629.0
65691.62670898438,809.0,40.0,-13.0,202630.0
65710.31103515625,810.0,41.0,-12.0,202631.0
65728.99536132812,811.0,41.0,-10.0,202633.0
65747.6796875,812.0,39.0,-10.0,202633.0
65766.36401367188,813.0,35.0,-14.0,202629.0
65785.04833984375,814.0,27.0,-21.0,202622.0
65803.73266601562,815.0,16.0,-32.0,202611.0
65822.4169921875,816.0,4.0,-44.0,202599.0
65841.10131835938,817.0,-6.0,-54.0,202589.0
65859.78564453125,818.0,-14.0,-63.0,202580.0
65878.46997070312,819.0,-18.0,-68.0,202575.0
65897.154296875,820.0,-18.0,-70.0,202573.0
65915.83862304688,821.0,-16.0,-68.0,202575.0
65934.52294921875,822.0,-13.0,-63.0,202580.0
65953.20727539062,823.0,-9.0,-57.0,202586.0
65971.8916015625,824.0,-5.0,-49.0,202594.0
65990.57592773438,825.0,-1.0,-41.0,202602.0
66009.26025390625,826.0,2.0,-35.0,202608.0
66027.94482421875,827.0,5.0,-31.0,202612.0
66046.62915039062,828.0,8.0,-25.0,202618.0
66065.3134765625,829.0,12.0,-21.0,202622.0
66083.99780273438,830.0,17.0,-18.0,202625.0
66102.68212890625,831.0,20.0,-16.0,202627.0
66121.36645507812,832.0,19.0,-17.0,202626.0
66140.05078125,833.0,13.0,-21.0,202622.0
66158.73510742188,834.0,7.0,-26.0,202617.0
66177.41943359375,835.0,2.0,-30.0,202613.0
66196.10375976562,836.0,-2.0,-34.0,202609.0
66214.7880859375,837.0,-3.0,-36.0,202607.0
66233.47241210938,838.0,-1.0,-35.0,202608.0
66252.15673828125,839.0,2.0,-33.0,202610.0
66270.84106445312,840.0,6.0,-29.0,202614.0
66289.525390625,841.0,8.0,-26.0,202617.0
66308.20971679688,842.0,7.0,-23.0,202620.0
66326.89404296875,843.0,6.0,-21.0,202622.0
66345.57836914062,844.0,7.0,-17.0,202626.0
66364.2626953125,845.0,10.0,-15.0,202628.0
66382.94702148438,846.0,13.0,-13.0,202630.0
66401.63134765625,847.0,16.0,-11.0,202632.0
66420.31567382812,848.0,17.0,-9.0,202634.0
66439.0,849.0,19.0,-7.0,202636.0
66457.68432617188,850.0,20.0,-6.0,202637.0
66476.36865234375,851.0,20.0,-4.0,202639.0
66495.05297851562,852.0,22.0,-2.0,202641.0
66513.7373046875,853.0,27.0,1.0,202644.0
66532.42163085938,854.0,32.0,2.0,202645.0
66551.10595703125,855.0,34.0,1.0,202644.0
66569.79052734375,856.0,30.0,-4.0,202639.0
66588.47485351562,857.0,23.0,-14.0,202629.0
66607.1591796875,858.0,13.0,-26.0,202617.0
66625.84350585938,859.0,3.0,-37.0,202606.0
66644.52783203125,860.0,-5.0,-45.0,202598.0
66663.21215820312,861.0,-11.0,-51.0,202592.0
66681.896484375,862.0,-16.0,-53.0,202590.0
66700.58081054688,863.0,-19.0,-53.0,202590.0
66719.26513671875,864.0,-20.0,-49.0,202594.0
66737.94946289062,865.0,-19.0,-43.0,202600.0
66756.6337890625,866.0,-17.0,-36.0,202607.0
66775.31811523438,867.0,-11.0,-29.0,202614.0
66794.00244140625,868.0,-5.0,-23.0,202620.0
66812.68676757812,869.0,1.0,-16.0,202627.0
66831.37109375,870.0,7.0,-10.0,202633.0
66850.05541992188,871.0,11.0,-5.0,202638.0
66868.73974609375,872.0,14.0,-3.0,202640.0
66887.42407226562,873.0,14.0,-3.0,202640.0
66906.1083984375,874.0,11.0,-5.0,202638.0
66924.79272460938,875.0,7.0,-8.0,202635.0
66943.47705078125,876.0,2.0,-12.0,202631.0
66962.16137695312,877.0,-4.0,-17.0,202626.0
66980.845703125,878.0,-8.0,-20.0,202623.0
66999.53002929688,879.0,-11.0,-23.0,202620.0
67018.21435546875,880.0,-12.0,-24.0,202619.0
67036.89868164062,881.0,-10.0,-24.0,202619.0
67055.5830078125,882.0,-9.0,-22.0,202621.0
67074.26733398438,883.0,-6.0,-19.0,202624.0
67092.95166015625,884.0,-3.0,-17.0,202626.0
67111.63623046875,885.0,0.0,-15.0,202628.0
67130.32055664062,886.0,3.0,-12.0,202631.0
67149.0048828125,887.0,7.0,-10.0,202633.0
67167.68920898438,888.0,11.0,-9.0,202634.0
67186.37353515625,889.0,13.0,-7.0,202636.0
67205.05786132812,890.0,15.0,-6.0,202637.0
67223.7421875,891.0,17.0,-5.0,202638.0
67242.42651367188,892.0,21.0,-3.0,202640.0
67261.11083984375,893.0,27.0,-1.0,202642.0
67279.79516601562,894.0,31.0,3.0,202646.0
67298.4794921875,895.0,32.0,6.0,202649.0
67317.16381835938,896.0,32.0,8.0,202651.0
67335.84814453125,897.0,30.0,10.0,202653.0
67354.53247070312,898.0,28.0,10.0,202653.0
67373.216796875,899.0,26.0,6.0,202649.0
67391.90112304688,900.0,23.0,0.0,202643.0
67410.58544921875,901.0,15.0,-9.0,202634.0
67429.26977539062,902.0,6.0,-19.0,202624.0
67447.9541015625,903.0,-2.0,-28.0,202615.0
67466.63842773438,904.0,-7.0,-35.0,202608.0
67485.32275390625,905.0,-9.0,-39.0,202604.0
67504.00708007812,906.0,-10.0,-38.0,202605.0
67522.69140625,907.0,-11.0,-36.0,202607.0
67541.37573242188,908.0,-11.0,-32.0,202611.0
67560.06005859375,909.0,-11.0,-27.0,202616.0
67578.74438476562,910.0,-10.0,-20.0,202623.0
67597.4287109375,911.0,-8.0,-15.0,202628.0
67616.11303710938,912.0,-4.0,-11.0,202632.0
67634.79736328125,913.0,1.0,-7.0,202636.0
67653.48193359375,914.0,4.0,-3.0,202640.0
67672.16625976562,915.0,7.0,0.0,202643.0
67690.8505859375,916.0,8.0,2.0,202645.0
67709.53491210938,917.0,9.0,2.0,202645.0
67728.21923828125,918.0,8.0,-1.0,202642.0
67746.90356445312,919.0,6.0,-5.0,202638.0
67765.587890625,920.0,2.0,-10.0,202633.0
67784.27221679688,921.0,-3.0,-14.0,202629.0
67802.95654296875,922.0,-6.0,-15.0,202628.0
67821.64086914062,923.0,-6.0,-14.0,202629.0
67840.3251953125,924.0,-1.0,-12.0,202631.0
67859.00952148438,925.0,6.0,-9.0,202634.0
67877.69384765625,926.0,14.0,-5.0,202638.0
67896.37817382812,927.0,22.0,-1.0,202642.0
67915.0625,928.0,27.0,2.0,202645.0
67933.74682617188,929.0,31.0,5.0,202648.0
67952.43115234375,930.0,32.0,8.0,202651.0
67971.11547851562,931.0,32.0,10.0,202653.0
67989.7998046875,932.0,32.0,13.0,202656.0
68008.48413085938,933.0,33.0,15.0,202658.0
68027.16845703125,934.0,33.0,16.0,202659.0
68045.85278320312,935.0,34.0,17.0,202660.0
68064.537109375,936.0,35.0,18.0,202661.0
68083.22143554688,937.0,37.0,19.0,202662.0
68101.90576171875,938.0,38.0,19.0,202662.0
68120.59008789062,939.0,36.0,17.0,202660.0
68139.2744140625,940.0,31.0,10.0,202653.0
68157.95874023438,941.0,24.0,1.0,202644.0
68176.64306640625,942.0,16.0,-9.0,202634.0
68195.32763671875,943.0,8.0,-19.0,202624.0
68214.01196289062,944.0,-1.0,-26.0,202617.0
68232.6962890625,945.0,-8.0,-30.0,202613.0
68251.38061523438,946.0,-12.0,-31.0,202612.0
68270.06494140625,947.0,-14.0,-29.0,202614.0
68288.74926757812,948.0,-16.0,-27.0,202616.0
68307.43359375,949.0,-16.0,-23.0,202620.0
68326.11791992188,950.0,-13.0,-16.0,202627.0
68344.80224609375,951.0,-9.0,-10.0,202633.0
68363.48657226562,952.0,-4.0,-4.0,202639.0
68382.1708984375,953.0,2.0,1.0,202644.0
68400.85522460938,954.0,6.0,4.0,202647.0
68419.53955078125,955.0,9.0,5.0,202648.0
68438.22387695312,956.0,11.0,5.0,202648.0
68456.908203125,957.0,11.0,3.0,202646.0
68475.59252929688,958.0,12.0,1.0,202644.0
68494.27685546875,959.0,13.0,1.0,202644.0
68512.96118164062,960.0,16.0,2.0,202645.0
68531.6455078125,961.0,19.0,3.0,202646.0
68550.32983398438,962.0,21.0,3.0,202646.0
68569.01416015625,963.0,22.0,4.0,202647.0
68587.69848632812,964.0,21.0,3.0,202646.0
68606.3828125,965.0,21.0,3.0,202646.0
68625.06713867188,966.0,21.0,5.0,202648.0
68643.75146484375,967.0,24.0,8.0,202651.0
68662.43579101562,968.0,26.0,11.0,202654.0
68681.1201171875,969.0,30.0,13.0,202656.0
68699.80444335938,970.0,33.0,16.0,202659.0
68718.48876953125,971.0,34.0,18.0,202661.0
68737.17333984375,972.0,35.0,20.0,202663.0
68755.85766601562,973.0,36.0,23.0,202666.0
68774.5419921875,974.0,36.0,24.0,202667.0
68793.22631835938,975.0,36.0,25.0,202668.0
68811.91064453125,976.0,36.0,25.0,202668.0
68830.59497070312,977.0,38.0,26.0,202669.0
68849.279296875,978.0,39.0,26.0,202669.0
68867.96362304688,979.0,40.0,27.0,202670.0
68886.64794921875,980.0,40.0,27.0,202670.0
68905.33227539062,981.0,35.0,23.0,202666.0
68924.0166015625,982.0,27.0,16.0,202659.0
68942.70092773438,983.0,15.0,5.0,202648.0
68961.38525390625,984.0,3.0,-7.0,202636.0
68980.06958007812,985.0,-7.0,-16.0,202627.0
68998.75390625,986.0,-15.0,-24.0,202619.0
69017.43823242188,987.0,-17.0,-28.0,202615.0
69036.12255859375,988.0,-14.0,-29.0,202614.0
69054.80688476562,989.0,-8.0,-28.0,202615.0
69073.4912109375,990.0,-1.0,-24.0,202619.0
69092.17553710938,991.0,6.0,-17.0,202626.0
69110.85986328125,992.0,11.0,-11.0,202632.0
69129.54418945312,993.0,16.0,-5.0,202638.0
69148.228515625,994.0,21.0,1.0,202644.0
69166.91284179688,995.0,24.0,7.0,202650.0
69185.59716796875,996.0,26.0,11.0,202654.0
69204.28149414062,997.0,27.0,13.0,202656.0
69222.9658203125,998.0,27.0,14.0,202657.0
69241.65014648438,999.0,28.0,13.0,202656.0
69260.33447265625,1000.0,27.0,9.0,202652.0
69279.01904296875,1001.0,24.0,5.0,202648.0
69297.70336914062,1002.0,22.0,1.0,202644.0
69316.3876953125,1003.0,19.0,-3.0,202640.0
69335.07202148438,1004.0,17.0,-5.0,202638.0
69353.75634765625,1005.0,14.0,-7.0,202636.0
69372.44067382812,1006.0,12.0,-7.0,202636.0
69391.125,1007.0,11.0,-5.0,202638.0
69409.80932617188,1008.0,12.0,-3.0,202640.0
69428.49365234375,1009.0,14.0,0.0,202643.0
69447.17797851562,1010.0,16.0,3.0,202646.0
69465.8623046875,1011.0,18.0,5.0,202648.0
69484.54663085938,1012.0,18.0,7.0,202650.0
69503.23095703125,1013.0,20.0,8.0,202651.0
69521.91528320312,1014.0,22.0,10.0,202653.0
69540.599609375,1015.0,24.0,12.0,202655.0
69559.28393554688,1016.0,25.0,13.0,202656.0
69577.96826171875,1017.0,26.0,14.0,202657.0
69596.65258789062,1018.0,27.0,15.0,202658.0
69615.3369140625,1019.0,28.0,15.0,202658.0
69634.02124023438,1020.0,26.0,14.0,202657.0
69652.70556640625,1021.0,27.0,14.0,202657.0
69671.38989257812,1022.0,28.0,14.0,202657.0
69690.07421875,1023.0,29.0,14.0,202657.0
69708.75854492188,1024.0,30.0,13.0,202656.0
69727.44287109375,1025.0,26.0,10.0,202653.0
69746.12719726562,1026.0,17.0,3.0,202646.0
69764.8115234375,1027.0,6.0,-7.0,202636.0
69783.49584960938,1028.0,-6.0,-18.0,202625.0
69802.18017578125,1029.0,-17.0,-27.0,202616.0
69820.86474609375,1030.0,-24.0,-35.0,202608.0
69839.54907226562,1031.0,-25.0,-37.0,202606.0
69858.2333984375,1032.0,-24.0,-38.0,202605.0
69876.91772460938,1033.0,-21.0,-35.0,202608.0
69895.60205078125,1034.0,-15.0,-30.0,202613.0
69914.28637695312,1035.0,-8.0,-25.0,202618.0
69932.970703125,1036.0,-2.0,-17.0,202626.0
69951.65502929688,1037.0,1.0,-11.0,202632.0
69970.33935546875,1038.0,1.0,-5.0,202638.0
69989.02368164062,1039.0,0.0,1.0,202644.0
70007.7080078125,1040.0,-2.0,4.0,202647.0
70026.39233398438,1041.0,-4.0,5.0,202648.0
70045.07666015625,1042.0,-5.0,4.0,202647.0
70063.76098632812,1043.0,-7.0,2.0,202645.0
70082.4453125,1044.0,-10.0,-2.0,202641.0
70101.12963867188,1045.0,-13.0,-7.0,202636.0
70119.81396484375,1046.0,-15.0,-12.0,202631.0
70138.49829101562,1047.0,-16.0,-16.0,202627.0
70157.1826171875,1048.0,-17.0,-19.0,202624.0
70175.86694335938,1049.0,-18.0,-19.0,202624.0
70194.55126953125,1050.0,-17.0,-19.0,202624.0
70213.23559570312,1051.0,-15.0,-18.0,202625.0
70231.919921875,1052.0,-12.0,-15.0,202628.0
70250.60424804688,1053.0,-9.0,-11.0,202632.0
70269.28857421875,1054.0,-7.0,-6.0,202637.0
70287.97290039062,1055.0,-5.0,-4.0,202639.0
70306.6572265625,1056.0,-3.0,-2.0,202641.0
70325.34155273438,1057.0,0.0,0.0,202643.0
70344.02587890625,1058.0,3.0,2.0,202645.0
70362.71044921875,1059.0,7.0,4.0,202647.0
70381.39477539062,1060.0,10.0,5.0,202648.0
70400.0791015625,1061.0,12.0,7.0,202650.0
70418.76342773438,1062.0,15.0,9.0,202652.0
70437.44775390625,1063.0,17.0,9.0,202652.0
70456.13208007812,1064.0,19.0,11.0,202654.0
70474.81640625,1065.0,21.0,12.0,202655.0
70493.50073242188,1066.0,22.0,13.0,202656.0
70512.18505859375,1067.0,21.0,14.0,202657.0
70530.86938476562,1068.0,19.0,14.0,202657.0
70549.5537109375,1069.0,16.0,12.0,202655.0
70568.23803710938,1070.0,11.0,6.0,202649.0
70586.92236328125,1071.0,3.0,-3.0,202640.0
70605.60668945312,1072.0,-7.0,-13.0,202630.0
70624.291015625,1073.0,-16.0,-22.0,202621.0
70642.97534179688,1074.0,-24.0,-31.0,202612.0
70661.65966796875,1075.0,-31.0,-38.0,202605.0
70680.34399414062,1076.0,-33.0,-40.0,202603.0
70699.0283203125,1077.0,-32.0,-40.0,202603.0
70717.71264648438,1078.0,-27.0,-34.0,202609.0
70736.39697265625,1079.0,-20.0,-28.0,202615.0
70755.08129882812,1080.0,-13.0,-21.0,202622.0
70773.765625,1081.0,-8.0,-14.0,202629.0
70792.44995117188,1082.0,-6.0,-8.0,202635.0
70811.13427734375,1083.0,-6.0,-3.0,202640.0
70829.81860351562,1084.0,-6.0,1.0,202644.0
70848.5029296875,1085.0,-6.0,5.0,202648.0
70867.18725585938,1086.0,-6.0,7.0,202650.0
70885.87158203125,1087.0,-8.0,8.0,202651.0
70904.55615234375,1088.0,-10.0,6.0,202649.0
70923.24047851562,1089.0,-14.0,4.0,202647.0
70941.9248046875,1090.0,-17.0,-1.0,202642.0
70960.60913085938,1091.0,-21.0,-5.0,202638.0
70979.29345703125,1092.0,-24.0,-8.0,202635.0
70997.97778320312,1093.0,-26.0,-10.0,202633.0
71016.662109375,1094.0,-29.0,-10.0,202633.0
71035.34643554688,1095.0,-31.0,-10.0,202633.0
71054.03076171875,1096.0,-31.0,-10.0,202633.0
71072.71508789062,1097.0,-29.0,-9.0,202634.0
71091.3994140625,1098.0,-23.0,-6.0,202637.0
71110.08374023438,1099.0,-13.0,-2.0,202641.0
71128.76806640625,1100.0,-3.0,2.0,202645.0
71147.45239257812,1101.0,6.0,7.0,202650.0
71166.13671875,1102.0,12.0,10.0,202653.0
71184.82104492188,1103.0,16.0,12.0,202655.0
71203.50537109375,1104.0,19.0,14.0,202657.0
71222.18969726562,1105.0,20.0,16.0,202659.0
71240.8740234375,1106.0,21.0,19.0,202662.0
71259.55834960938,1107.0,21.0,21.0,202664.0
71278.24267578125,1108.0,20.0,22.0,202665.0
71296.92700195312,1109.0,18.0,23.0,202666.0
71315.611328125,1110.0,16.0,23.0,202666.0
71334.29565429688,1111.0,12.0,21.0,202664.0
71352.97998046875,1112.0,6.0,13.0,202656.0
71371.66430664062,1113.0,-1.0,3.0,202646.0
71390.3486328125,1114.0,-8.0,-7.0,202636.0
71409.03295898438,1115.0,-12.0,-17.0,202626.0
71427.71728515625,1116.0,-13.0,-25.0,202618.0
71446.40185546875,1117.0,-13.0,-28.0,202615.0
71465.08618164062,1118.0,-12.0,-28.0,202615.0
71483.7705078125,1119.0,-9.0,-25.0,202618.0
71502.45483398438,1120.0,-6.0,-21.0,202622.0
71521.13916015625,1121.0,-4.0,-15.0,202628.0
71539.82348632812,1122.0,-2.0,-10.0,202633.0
71558.5078125,1123.0,-1.0,-4.0,202639.0
71577.19213867188,1124.0,1.0,1.0,202644.0
71595.87646484375,1125.0,3.0,5.0,202648.0
71614.56079101562,1126.0,7.0,8.0,202651.0
71633.2451171875,1127.0,12.0,11.0,202654.0
71651.92944335938,1128.0,15.0,13.0,202656.0
71670.61376953125,1129.0,14.0,12.0,202655.0
71689.29809570312,1130.0,12.0,9.0,202652.0
71707.982421875,1131.0,8.0,5.0,202648.0
71726.66674804688,1132.0,4.0,1.0,202644.0
71745.35107421875,1133.0,0.0,-3.0,202640.0
71764.03540039062,1134.0,-3.0,-5.0,202638.0
71782.7197265625,1135.0,-6.0,-6.0,202637.0
71801.40405273438,1136.0,-7.0,-6.0,202637.0
71820.08837890625,1137.0,-6.0,-4.0,202639.0
71838.77270507812,1138.0,-4.0,-1.0,202642.0
71857.45703125,1139.0,1.0,3.0,202646.0
71876.14135742188,1140.0,5.0,7.0,202650.0
71894.82568359375,1141.0,9.0,9.0,202652.0
71913.51000976562,1142.0,11.0,11.0,202654.0
71932.1943359375,1143.0,12.0,13.0,202656.0
71950.87866210938,1144.0,12.0,13.0,202656.0
71969.56298828125,1145.0,13.0,15.0,202658.0
71988.24755859375,1146.0,15.0,17.0,202660.0
72006.93188476562,1147.0,16.0,19.0,202662.0
72025.6162109375,1148.0,18.0,21.0,202664.0
72044.30053710938,1149.0,19.0,21.0,202664.0
72062.98486328125,1150.0,17.0,21.0,202664.0
72081.66918945312,1151.0,13.0,20.0,202663.0
72100.353515625,1152.0,8.0,20.0,202663.0
72119.03784179688,1153.0,2.0,17.0,202660.0
72137.72216796875,1154.0,-6.0,10.0,202653.0
72156.40649414062,1155.0,-14.0,1.0,202644.0
72175.0908203125,1156.0,-21.0,-10.0,202633.0
72193.77514648438,1157.0,-28.0,-20.0,202623.0
72212.45947265625,1158.0,-32.0,-28.0,202615.0
72231.14379882812,1159.0,-32.0,-33.0,202610.0
72249.828125,1160.0,-30.0,-35.0,202608.0
72268.51245117188,1161.0,-25.0,-33.0,202610.0
72287.19677734375,1162.0,-16.0,-29.0,202614.0
72305.88110351562,1163.0,-9.0,-24.0,202619.0
72324.5654296875,1164.0,-2.0,-16.0,202627.0
72343.24975585938,1165.0,3.0,-10.0,202633.0
72361.93408203125,1166.0,8.0,-3.0,202640.0
72380.61840820312,1167.0,11.0,2.0,202645.0
72399.302734375,1168.0,11.0,6.0,202649.0
72417.98706054688,1169.0,8.0,8.0,202651.0
72436.67138671875,1170.0,4.0,8.0,202651.0
72455.35571289062,1171.0,-1.0,7.0,202650.0
72474.0400390625,1172.0,-7.0,4.0,202647.0
72492.72436523438,1173.0,-13.0,1.0,202644.0
72511.40869140625,1174.0,-19.0,-4.0,202639.0
72530.09326171875,1175.0,-24.0,-8.0,202635.0
72548.77758789062,1176.0,-28.0,-12.0,202631.0
72567.4619140625,1177.0,-28.0,-14.0,202629.0
72586.14624023438,1178.0,-25.0,-14.0,202629.0
72604.83056640625,1179.0,-20.0,-11.0,202632.0
72623.51489257812,1180.0,-14.0,-9.0,202634.0
72642.19921875,1181.0,-9.0,-4.0,202639.0
72660.88354492188,1182.0,-4.0,-1.0,202642.0
72679.56787109375,1183.0,1.0,3.0,202646.0
72698.25219726562,1184.0,7.0,7.0,202650.0
72716.9365234375,1185.0,13.0,10.0,202653.0
72735.62084960938,1186.0,17.0,12.0,202655.0
72754.30517578125,1187.0,19.0,13.0,202656.0
72772.98950195312,1188.0,21.0,14.0,202657.0
72791.673828125,1189.0,23.0,14.0,202657.0
72810.35815429688,1190.0,25.0,15.0,202658.0
72829.04248046875,1191.0,25.0,16.0,202659.0
72847.72680664062,1192.0,26.0,17.0,202660.0
72866.4111328125,1193.0,27.0,16.0,202659.0
72885.09545898438,1194.0,27.0,16.0,202659.0
72903.77978515625,1195.0,24.0,16.0,202659.0
72922.46411132812,1196.0,19.0,14.0,202657.0
72941.1484375,1197.0,12.0,8.0,202651.0
72959.83276367188,1198.0,1.0,-1.0,202642.0
72978.51708984375,1199.0,-9.0,-11.0,202632.0
72997.20141601562,1200.0,-17.0,-20.0,202623.0
73015.8857421875,1201.0,-23.0,-27.0,202616.0
73034.57006835938,1202.0,-26.0,-32.0,202611.0
73053.25439453125,1203.0,-26.0,-33.0,202610.0
73071.93896484375,1204.0,-23.0,-32.0,202611.0
73090.62329101562,1205.0,-19.0,-28.0,202615.0
73109.3076171875,1206.0,-13.0,-21.0,202622.0
73127.99194335938,1207.0,-8.0,-15.0,202628.0
73146.67626953125,1208.0,-3.0,-9.0,202634.0
73165.36059570312,1209.0,1.0,-5.0,202638.0
73184.044921875,1210.0,6.0,0.0,202643.0
73202.72924804688,1211.0,10.0,5.0,202648.0
73221.41357421875,1212.0,14.0,10.0,202653.0
73240.09790039062,1213.0,17.0,12.0,202655.0
73258.7822265625,1214.0,18.0,12.0,202655.0
73277.46655273438,1215.0,16.0,10.0,202653.0
73296.15087890625,1216.0,12.0,6.0,202649.0
73314.83520507812,1217.0,7.0,1.0,202644.0
73333.51953125,1218.0,3.0,-3.0,202640.0
73352.20385742188,1219.0,0.0,-8.0,202635.0
73370.88818359375,1220.0,-3.0,-11.0,202632.0
73389.57250976562,1221.0,-5.0,-11.0,202632.0
73408.2568359375,1222.0,-6.0,-10.0,202633.0
73426.94116210938,1223.0,-6.0,-8.0,202635.0
73445.62548828125,1224.0,-5.0,-5.0,202638.0
73464.30981445312,1225.0,-3.0,-2.0,202641.0
73482.994140625,1226.0,-1.0,0.0,202643.0
73501.67846679688,1227.0,1.0,3.0,202646.0
73520.36279296875,1228.0,3.0,6.0,202649.0
73539.04711914062,1229.0,5.0,9.0,202652.0
73557.7314453125,1230.0,8.0,10.0,202653.0
73576.41577148438,1231.0,11.0,12.0,202655.0
73595.10009765625,1232.0,14.0,14.0,202657.0
73613.78466796875,1233.0,16.0,17.0,202660.0
73632.46899414062,1234.0,18.0,19.0,202662.0
73651.1533203125,1235.0,21.0,19.0,202662.0
73669.83764648438,1236.0,22.0,20.0,202663.0
73688.52197265625,1237.0,24.0,20.0,202663.0
73707.20629882812,1238.0,23.0,20.0,202663.0
73725.890625,1239.0,24.0,20.0,202663.0
73744.57495117188,1240.0,24.0,19.0,202662.0
73763.25927734375,1241.0,22.0,18.0,202661.0
73781.94360351562,1242.0,19.0,14.0,202657.0
73800.6279296875,1243.0,14.0,7.0,202650.0
73819.31225585938,1244.0,7.0,-3.0,202640.0
73837.99658203125,1245.0,-4.0,-14.0,202629.0
73856.68090820312,1246.0,-15.0,-24.0,202619.0
73875.365234375,1247.0,-24.0,-30.0,202613.0
73894.04956054688,1248.0,-29.0,-33.0,202610.0
73912.73388671875,1249.0,-29.0,-31.0,202612.0
73931.41821289062,1250.0,-27.0,-28.0,202615.0
73950.1025390625,1251.0,-23.0,-22.0,202621.0
73968.78686523438,1252.0,-15.0,-17.0,202626.0
73987.47119140625,1253.0,-8.0,-10.0,202633.0
74006.15551757812,1254.0,0.0,-2.0,202641.0
74024.83984375,1255.0,6.0,4.0,202647.0
74043.52416992188,1256.0,9.0,9.0,202652.0
74062.20849609375,1257.0,11.0,13.0,202656.0
74080.89282226562,1258.0,11.0,14.0,202657.0
74099.5771484375,1259.0,9.0,13.0,202656.0
74118.26147460938,1260.0,7.0,11.0,202654.0
74136.94580078125,1261.0,4.0,7.0,202650.0
74155.63037109375,1262.0,1.0,3.0,202646.0
74174.31469726562,1263.0,1.0,-2.0,202641.0
74192.9990234375,1264.0,1.0,-5.0,202638.0
74211.68334960938,1265.0,3.0,-8.0,202635.0
74230.36767578125,1266.0,5.0,-7.0,202636.0
74249.05200195312,1267.0,7.0,-7.0,202636.0
74267.736328125,1268.0,10.0,-5.0,202638.0
74286.42065429688,1269.0,11.0,-2.0,202641.0
74305.10498046875,1270.0,13.0,0.0,202643.0
74323.78930664062,1271.0,12.0,2.0,202645.0
74342.4736328125,1272.0,10.0,4.0,202647.0
74361.15795898438,1273.0,10.0,6.0,202649.0
74379.84228515625,1274.0,11.0,7.0,202650.0
74398.52661132812,1275.0,11.0,9.0,202652.0
74417.2109375,1276.0,12.0,12.0,202655.0
74435.89526367188,1277.0,13.0,14.0,202657.0
74454.57958984375,1278.0,15.0,16.0,202659.0
74473.26391601562,1279.0,17.0,18.0,202661.0
74491.9482421875,1280.0,19.0,19.0,202662.0
74510.63256835938,1281.0,22.0,20.0,202663.0
74529.31689453125,1282.0,23.0,18.0,202661.0
74548.00122070312,1283.0,21.0,15.0,202658.0
74566.685546875,1284.0,16.0,9.0,202652.0
74585.36987304688,1285.0,10.0,1.0,202644.0
74604.05419921875,1286.0,3.0,-8.0,202635.0
74622.73852539062,1287.0,-4.0,-16.0,202627.0
74641.4228515625,1288.0,-11.0,-22.0,202621.0
74660.10717773438,1289.0,-17.0,-25.0,202618.0
74678.79150390625,1290.0,-20.0,-25.0,202618.0
74697.47607421875,1291.0,-20.0,-23.0,202620.0
74716.16040039062,1292.0,-20.0,-19.0,202624.0
74734.8447265625,1293.0,-18.0,-12.0,202631.0
74753.52905273438,1294.0,-13.0,-5.0,202638.0
74772.21337890625,1295.0,-5.0,2.0,202645.0
74790.89770507812,1296.0,2.0,9.0,202652.0
74809.58203125,1297.0,8.0,14.0,202657.0
74828.26635742188,1298.0,14.0,17.0,202660.0
74846.95068359375,1299.0,16.0,18.0,202661.0
74865.63500976562,1300.0,16.0,18.0,202661.0
74884.3193359375,1301.0,15.0,16.0,202659.0
74903.00366210938,1302.0,12.0,13.0,202656.0
74921.68798828125,1303.0,7.0,8.0,202651.0
74940.37231445312,1304.0,3.0,3.0,202646.0
74959.056640625,1305.0,-1.0,0.0,202643.0
74977.74096679688,1306.0,-3.0,-2.0,202641.0
74996.42529296875,1307.0,-3.0,-1.0,202642.0
75015.10961914062,1308.0,-3.0,0.0,202643.0
75033.7939453125,1309.0,0.0,2.0,202645.0
75052.47827148438,1310.0,3.0,4.0,202647.0
75071.16259765625,1311.0,8.0,6.0,202649.0
75089.84692382812,1312.0,13.0,7.0,202650.0
75108.53125,1313.0,16.0,9.0,202652.0
75127.21557617188,1314.0,18.0,10.0,202653.0
75145.89990234375,1315.0,18.0,12.0,202655.0
75164.58422851562,1316.0,18.0,14.0,202657.0
75183.2685546875,1317.0,17.0,16.0,202659.0
75201.95288085938,1318.0,16.0,18.0,202661.0
75220.63720703125,1319.0,17.0,18.0,202661.0
75239.32177734375,1320.0,18.0,19.0,202662.0
75258.00610351562,1321.0,19.0,20.0,202663.0
75276.6904296875,1322.0,19.0,21.0,202664.0
75295.37475585938,1323.0,18.0,22.0,202665.0
75314.05908203125,1324.0,18.0,22.0,202665.0
75332.74340820312,1325.0,17.0,22.0,202665.0
75351.427734375,1326.0,13.0,18.0,202661.0
75370.11206054688,1327.0,6.0,11.0,202654.0
75388.79638671875,1328.0,-3.0,-1.0,202642.0
75407.48071289062,1329.0,-13.0,-12.0,202631.0
75426.1650390625,1330.0,-22.0,-20.0,202623.0
75444.84936523438,1331.0,-29.0,-26.0,202617.0
75463.53369140625,1332.0,-33.0,-29.0,202614.0
75482.21801757812,1333.0,-33.0,-28.0,202615.0
75500.90234375,1334.0,-30.0,-25.0,202618.0
75519.58666992188,1335.0,-24.0,-20.0,202623.0
75538.27099609375,1336.0,-18.0,-14.0,202629.0
75556.95532226562,1337.0,-12.0,-8.0,202635.0
75575.6396484375,1338.0,-7.0,-2.0,202641.0
75594.32397460938,1339.0,-3.0,3.0,202646.0
75613.00830078125,1340.0,-1.0,7.0,202650.0
75631.69262695312,1341.0,1.0,9.0,202652.0
75650.376953125,1342.0,2.0,10.0,202653.0
75669.06127929688,1343.0,1.0,10.0,202653.0
75687.74560546875,1344.0,1.0,9.0,202652.0
75706.42993164062,1345.0,-1.0,7.0,202650.0
75725.1142578125,1346.0,-4.0,4.0,202647.0
75743.79858398438,1347.0,-7.0,1.0,202644.0
75762.48291015625,1348.0,-8.0,-2.0,202641.0
75781.16748046875,1349.0,-7.0,-4.0,202639.0
75799.85180664062,1350.0,-7.0,-5.0,202638.0
75818.5361328125,1351.0,-7.0,-4.0,202639.0
75837.22045898438,1352.0,-6.0,-3.0,202640.0
75855.90478515625,1353.0,-4.0,-3.0,202640.0
75874.58911132812,1354.0,-1.0,-2.0,202641.0
75893.2734375,1355.0,0.0,-2.0,202641.0
75911.95776367188,1356.0,1.0,0.0,202643.0
75930.64208984375,1357.0,1.0,2.0,202645.0
75949.32641601562,1358.0,1.0,4.0,202647.0
75968.0107421875,1359.0,2.0,6.0,202649.0
75986.69506835938,1360.0,3.0,7.0,202650.0
76005.37939453125,1361.0,4.0,10.0,202653.0
76024.06372070312,1362.0,5.0,12.0,202655.0
76042.748046875,1363.0,7.0,15.0,202658.0
76061.43237304688,1364.0,10.0,17.0,202660.0
76080.11669921875,1365.0,12.0,18.0,202661.0
76098.80102539062,1366.0,13.0,16.0,202659.0
76117.4853515625,1367.0,12.0,15.0,202658.0
76136.16967773438,1368.0,11.0,14.0,202657.0
76154.85400390625,1369.0,7.0,11.0,202654.0
76173.53833007812,1370.0,2.0,5.0,202648.0
76192.22265625,1371.0,-5.0,-3.0,202640.0
76210.90698242188,1372.0,-13.0,-13.0,202630.0
76229.59130859375,1373.0,-21.0,-23.0,202620.0
76248.27563476562,1374.0,-29.0,-31.0,202612.0
76266.9599609375,1375.0,-33.0,-35.0,202608.0
76285.64428710938,1376.0,-35.0,-35.0,202608.0
76304.32861328125,1377.0,-31.0,-33.0,202610.0
76323.01318359375,1378.0,-27.0,-29.0,202614.0
76341.69750976562,1379.0,-22.0,-24.0,202619.0
76360.3818359375,1380.0,-14.0,-18.0,202625.0
76379.06616210938,1381.0,-7.0,-10.0,202633.0
76397.75048828125,1382.0,0.0,-4.0,202639.0
76416.43481445312,1383.0,5.0,2.0,202645.0
76435.119140625,1384.0,9.0,7.0,202650.0
76453.80346679688,1385.0,11.0,10.0,202653.0
76472.48779296875,1386.0,11.0,11.0,202654.0
76491.17211914062,1387.0,8.0,10.0,202653.0
76509.8564453125,1388.0,4.0,8.0,202651.0
76528.54077148438,1389.0,-1.0,4.0,202647.0
76547.22509765625,1390.0,-6.0,0.0,202643.0
76565.90942382812,1391.0,-10.0,-4.0,202639.0
76584.59375,1392.0,-11.0,-7.0,202636.0
76603.27807617188,1393.0,-13.0,-9.0,202634.0
76621.96240234375,1394.0,-15.0,-10.0,202633.0
76640.64672851562,1395.0,-16.0,-9.0,202634.0
76659.3310546875,1396.0,-15.0,-8.0,202635.0
76678.01538085938,1397.0,-12.0,-7.0,202636.0
76696.69970703125,1398.0,-7.0,-5.0,202638.0
76715.38403320312,1399.0,-3.0,-2.0,202641.0
76734.068359375,1400.0,0.0,1.0,202644.0
76752.75268554688,1401.0,2.0,3.0,202646.0
76771.43701171875,1402.0,4.0,5.0,202648.0
76790.12133789062,1403.0,5.0,6.0,202649.0
76808.8056640625,1404.0,5.0,7.0,202650.0
76827.48999023438,1405.0,5.0,10.0,202653.0
76846.17431640625,1406.0,4.0,13.0,202656.0
76864.85888671875,1407.0,4.0,14.0,202657.0
76883.54321289062,1408.0,4.0,16.0,202659.0
76902.2275390625,1409.0,6.0,18.0,202661.0
76920.91186523438,1410.0,7.0,19.0,202662.0
76939.59619140625,1411.0,7.0,20.0,202663.0
76958.28051757812,1412.0,5.0,18.0,202661.0
76976.96484375,1413.0,2.0,17.0,202660.0
76995.64916992188,1414.0,-2.0,13.0,202656.0
77014.33349609375,1415.0,-8.0,7.0,202650.0
77033.01782226562,1416.0,-17.0,-2.0,202641.0
77051.7021484375,1417.0,-26.0,-11.0,202632.0
77070.38647460938,1418.0,-33.0,-19.0,202624.0
77089.07080078125,1419.0,-38.0,-25.0,202618.0
77107.75512695312,1420.0,-39.0,-28.0,202615.0
77126.439453125,1421.0,-38.0,-28.0,202615.0
77145.12377929688,1422.0,-34.0,-26.0,202617.0
77163.80810546875,1423.0,-26.0,-21.0,202622.0
77182.49243164062,1424.0,-20.0,-17.0,202626.0
77201.1767578125,1425.0,-14.0,-11.0,202632.0
77219.86108398438,1426.0,-9.0,-6.0,202637.0
77238.54541015625,1427.0,-7.0,-1.0,202642.0
77257.22973632812,1428.0,-7.0,3.0,202646.0
77275.9140625,1429.0,-7.0,6.0,202649.0
77294.59838867188,1430.0,-7.0,8.0,202651.0
77313.28271484375,1431.0,-9.0,7.0,202650.0
77331.96704101562,1432.0,-13.0,5.0,202648.0
77350.6513671875,1433.0,-17.0,3.0,202646.0
77369.33569335938,1434.0,-21.0,1.0,202644.0
77388.02001953125,1435.0,-23.0,-2.0,202641.0
77406.70458984375,1436.0,-25.0,-4.0,202639.0
77425.38891601562,1437.0,-23.0,-5.0,202638.0
77444.0732421875,1438.0,-18.0,-5.0,202638.0
77462.75756835938,1439.0,-16.0,-4.0,202639.0
77481.44189453125,1440.0,-13.0,-2.0,202641.0
77500.12622070312,1441.0,-10.0,1.0,202644.0
77518.810546875,1442.0,-7.0,5.0,202648.0
77537.49487304688,1443.0,-4.0,7.0,202650.0
77556.17919921875,1444.0,-3.0,9.0,202652.0
77574.86352539062,1445.0,-4.0,10.0,202653.0
77593.5478515625,1446.0,-3.0,11.0,202654.0
77612.23217773438,1447.0,-2.0,12.0,202655.0
77630.91650390625,1448.0,1.0,13.0,202656.0
77649.60083007812,1449.0,5.0,13.0,202656.0
77668.28515625,1450.0,7.0,15.0,202658.0
77686.96948242188,1451.0,8.0,16.0,202659.0
77705.65380859375,1452.0,9.0,18.0,202661.0
77724.33813476562,1453.0,9.0,18.0,202661.0
77743.0224609375,1454.0,8.0,16.0,202659.0
77761.70678710938,1455.0,4.0,11.0,202654.0
77780.39111328125,1456.0,-1.0,3.0,202646.0
77799.07543945312,1457.0,-7.0,-5.0,202638.0
77817.759765625,1458.0,-15.0,-14.0,202629.0
77836.44409179688,1459.0,-23.0,-20.0,202623.0
77855.12841796875,1460.0,-28.0,-23.0,202620.0
77873.81274414062,1461.0,-30.0,-23.0,202620.0
77892.4970703125,1462.0,-30.0,-21.0,202622.0
77911.18139648438,1463.0,-26.0,-18.0,202625.0
77929.86572265625,1464.0,-23.0,-13.0,202630.0
77948.55029296875,1465.0,-19.0,-7.0,202636.0
77967.23461914062,1466.0,-16.0,-2.0,202641.0
77985.9189453125,1467.0,-12.0,3.0,202646.0
78004.60327148438,1468.0,-9.0,8.0,202651.0
78023.28759765625,1469.0,-5.0,11.0,202654.0
78041.97192382812,1470.0,-1.0,13.0,202656.0
78060.65625,1471.0,0.0,12.0,202655.0
78079.34057617188,1472.0,-2.0,9.0,202652.0
78098.02490234375,1473.0,-5.0,6.0,202649.0
78116.70922851562,1474.0,-7.0,3.0,202646.0
78135.3935546875,1475.0,-9.0,-1.0,202642.0
78154.07788085938,1476.0,-10.0,-3.0,202640.0
78172.76220703125,1477.0,-11.0,-5.0,202638.0
78191.44653320312,1478.0,-12.0,-5.0,202638.0
78210.130859375,1479.0,-14.0,-4.0,202639.0
78228.81518554688,1480.0,-14.0,-2.0,202641.0
78247.49951171875,1481.0,-14.0,1.0,202644.0
78266.18383789062,1482.0,-12.0,3.0,202646.0
78284.8681640625,1483.0,-11.0,4.0,202647.0
78303.55249023438,1484.0,-10.0,6.0,202649.0
78322.23681640625,1485.0,-7.0,8.0,202651.0
78340.92114257812,1486.0,-4.0,9.0,202652.0
78359.60546875,1487.0,-2.0,11.0,202654.0
78378.28979492188,1488.0,-1.0,13.0,202656.0
78396.97412109375,1489.0,-1.0,14.0,202657.0
78415.65844726562,1490.0,0.0,15.0,202658.0
78434.3427734375,1491.0,1.0,15.0,202658.0
78453.02709960938,1492.0,2.0,15.0,202658.0
78471.71142578125,1493.0,5.0,16.0,202659.0
78490.39599609375,1494.0,8.0,17.0,202660.0
78509.08032226562,1495.0,10.0,19.0,202662.0
78527.7646484375,1496.0,11.0,20.0,202663.0
78546.44897460938,1497.0,8.0,17.0,202660.0
78565.13330078125,1498.0,3.0,11.0,202654.0
78583.81762695312,1499.0,-5.0,2.0,202645.0
78602.501953125,1500.0,-13.0,-8.0,202635.0
78621.18627929688,1501.0,-19.0,-17.0,202626.0
78639.87060546875,1502.0,-24.0,-23.0,202620.0
78658.55493164062,1503.0,-26.0,-25.0,202618.0
78677.2392578125,1504.0,-26.0,-25.0,202618.0
78695.92358398438,1505.0,-24.0,-24.0,202619.0
78714.60791015625,1506.0,-20.0,-20.0,202623.0
78733.29223632812,1507.0,-16.0,-15.0,202628.0
78751.9765625,1508.0,-13.0,-11.0,202632.0
78770.66088867188,1509.0,-10.0,-7.0,202636.0
78789.34521484375,1510.0,-9.0,-2.0,202641.0
78808.02954101562,1511.0,-8.0,2.0,202645.0
78826.7138671875,1512.0,-7.0,6.0,202649.0
78845.39819335938,1513.0,-8.0,8.0,202651.0
78864.08251953125,1514.0,-10.0,8.0,202651.0
78882.76684570312,1515.0,-14.0,6.0,202649.0
78901.451171875,1516.0,-18.0,4.0,202647.0
78920.13549804688,1517.0,-20.0,1.0,202644.0
78938.81982421875,1518.0,-23.0,-2.0,202641.0
78957.50415039062,1519.0,-25.0,-4.0,202639.0
78976.1884765625,1520.0,-25.0,-6.0,202637.0
78994.87280273438,1521.0,-23.0,-6.0,202637.0
79013.55712890625,1522.0,-22.0,-6.0,202637.0
79032.24169921875,1523.0,-23.0,-5.0,202638.0
79050.92602539062,1524.0,-24.0,-4.0,202639.0
79069.6103515625,1525.0,-23.0,-3.0,202640.0
79088.29467773438,1526.0,-23.0,-2.0,202641.0
79106.97900390625,1527.0,-23.0,-2.0,202641.0
79125.66333007812,1528.0,-22.0,-2.0,202641.0
79144.34765625,1529.0,-21.0,-1.0,202642.0
79163.03198242188,1530.0,-18.0,2.0,202645.0
79181.71630859375,1531.0,-14.0,4.0,202647.0
79200.40063476562,1532.0,-11.0,7.0,202650.0
79219.0849609375,1533.0,-7.0,10.0,202653.0
79237.76928710938,1534.0,-6.0,11.0,202654.0
79256.45361328125,1535.0,-5.0,12.0,202655.0
79275.13793945312,1536.0,-3.0,12.0,202655.0
79293.822265625,1537.0,0.0,13.0,202656.0
79312.50659179688,1538.0,2.0,15.0,202658.0
79331.19091796875,1539.0,1.0,14.0,202657.0
79349.87524414062,1540.0,-2.0,12.0,202655.0
79368.5595703125,1541.0,-7.0,7.0,202650.0
79387.24389648438,1542.0,-13.0,0.0,202643.0
79405.92822265625,1543.0,-20.0,-10.0,202633.0
79424.61254882812,1544.0,-26.0,-19.0,202624.0
79443.296875,1545.0,-30.0,-25.0,202618.0
79461.98120117188,1546.0,-32.0,-27.0,202616.0
79480.66552734375,1547.0,-33.0,-27.0,202616.0
79499.34985351562,1548.0,-30.0,-25.0,202618.0
79518.0341796875,1549.0,-28.0,-21.0,202622.0
79536.71850585938,1550.0,-25.0,-16.0,202627.0
79555.40283203125,1551.0,-22.0,-11.0,202632.0
79574.08740234375,1552.0,-19.0,-7.0,202636.0
79592.77172851562,1553.0,-17.0,-3.0,202640.0
79611.4560546875,1554.0,-14.0,1.0,202644.0
79630.14038085938,1555.0,-12.0,4.0,202647.0
79648.82470703125,1556.0,-9.0,6.0,202649.0
79667.50903320312,1557.0,-5.0,7.0,202650.0
79686.193359375,1558.0,-3.0,6.0,202649.0
79704.87768554688,1559.0,-3.0,4.0,202647.0
79723.56201171875,1560.0,-5.0,1.0,202644.0
79742.24633789062,1561.0,-9.0,-2.0,202641.0
79760.9306640625,1562.0,-12.0,-4.0,202639.0
79779.61499023438,1563.0,-15.0,-4.0,202639.0
79798.29931640625,1564.0,-16.0,-4.0,202639.0
79816.98364257812,1565.0,-16.0,-2.0,202641.0
79835.66796875,1566.0,-16.0,0.0,202643.0
79854.35229492188,1567.0,-16.0,2.0,202645.0
79873.03662109375,1568.0,-15.0,3.0,202646.0
79891.72094726562,1569.0,-13.0,5.0,202648.0
79910.4052734375,1570.0,-11.0,7.0,202650.0
79929.08959960938,1571.0,-7.0,8.0,202651.0
79947.77392578125,1572.0,-2.0,10.0,202653.0
79966.45825195312,1573.0,1.0,12.0,202655.0
79985.142578125,1574.0,3.0,14.0,202657.0
80003.82690429688,1575.0,3.0,14.0,202657.0
80022.51123046875,1576.0,2.0,14.0,202657.0
80041.19555664062,1577.0,2.0,14.0,202657.0
80059.8798828125,1578.0,2.0,15.0,202658.0
80078.56420898438,1579.0,2.0,16.0,202659.0
80097.24853515625,1580.0,4.0,17.0,202660.0
80115.93310546875,1581.0,6.0,17.0,202660.0
80134.61743164062,1582.0,7.0,18.0,202661.0
80153.3017578125,1583.0,7.0,18.0,202661.0
80171.98608398438,1584.0,7.0,19.0,202662.0
80190.67041015625,1585.0,6.0,17.0,202660.0
80209.35473632812,1586.0,2.0,12.0,202655.0
80228.0390625,1587.0,-3.0,6.0,202649.0
80246.72338867188,1588.0,-11.0,-1.0,202642.0
80265.40771484375,1589.0,-17.0,-9.0,202634.0
80284.09204101562,1590.0,-22.0,-15.0,202628.0
80302.7763671875,1591.0,-25.0,-18.0,202625.0
80321.46069335938,1592.0,-26.0,-20.0,202623.0
80340.14501953125,1593.0,-24.0,-19.0,202624.0
80358.82934570312,1594.0,-23.0,-17.0,202626.0
80377.513671875,1595.0,-21.0,-13.0,202630.0
80396.19799804688,1596.0,-19.0,-7.0,202636.0
80414.88232421875,1597.0,-14.0,-3.0,202640.0
80433.56665039062,1598.0,-10.0,2.0,202645.0
80452.2509765625,1599.0,-4.0,7.0,202650.0
80470.93530273438,1600.0,2.0,11.0,202654.0
80489.61962890625,1601.0,7.0,13.0,202656.0
80508.30395507812,1602.0,8.0,13.0,202656.0
80526.98828125,1603.0,6.0,12.0,202655.0
80545.67260742188,1604.0,3.0,10.0,202653.0
80564.35693359375,1605.0,-1.0,8.0,202651.0
80583.04125976562,1606.0,-5.0,5.0,202648.0
80601.7255859375,1607.0,-8.0,3.0,202646.0
80620.40991210938,1608.0,-8.0,3.0,202646.0
80639.09423828125,1609.0,-6.0,3.0,202646.0
80657.77880859375,1610.0,-4.0,4.0,202647.0
80676.46313476562,1611.0,-1.0,5.0,202648.0
80695.1474609375,1612.0,3.0,7.0,202650.0
80713.83178710938,1613.0,7.0,10.0,202653.0
80732.51611328125,1614.0,10.0,11.0,202654.0
80751.20043945312,1615.0,12.0,13.0,202656.0
80769.884765625,1616.0,12.0,15.0,202658.0
80788.56909179688,1617.0,13.0,17.0,202660.0
80807.25341796875,1618.0,12.0,18.0,202661.0
80825.93774414062,1619.0,12.0,18.0,202661.0
80844.6220703125,1620.0,14.0,18.0,202661.0
80863.30639648438,1621.0,18.0,19.0,202662.0
80881.99072265625,1622.0,20.0,20.0,202663.0
80900.67504882812,1623.0,20.0,20.0,202663.0
80919.359375,1624.0,17.0,20.0,202663.0
80938.04370117188,1625.0,12.0,17.0,202660.0
80956.72802734375,1626.0,5.0,13.0,202656.0
80975.41235351562,1627.0,-4.0,6.0,202649.0
80994.0966796875,1628.0,-13.0,-2.0,202641.0
81012.78100585938,1629.0,-20.0,-10.0,202633.0
81031.46533203125,1630.0,-23.0,-16.0,202627.0
81050.14965820312,1631.0,-22.0,-18.0,202625.0
81068.833984375,1632.0,-19.0,-18.0,202625.0
81087.51831054688,1633.0,-13.0,-13.0,202630.0
81106.20263671875,1634.0,-6.0,-8.0,202635.0
81124.88696289062,1635.0,3.0,-2.0,202641.0
81143.5712890625,1636.0,9.0,4.0,202647.0
81162.25561523438,1637.0,14.0,10.0,202653.0
81180.93994140625,1638.0,19.0,15.0,202658.0
81199.62451171875,1639.0,23.0,20.0,202663.0
81218.30883789062,1640.0,26.0,22.0,202665.0
81236.9931640625,1641.0,27.0,25.0,202668.0
81255.67749023438,1642.0,28.0,25.0,202668.0
81274.36181640625,1643.0,28.0,23.0,202666.0
81293.04614257812,1644.0,27.0,19.0,202662.0
81311.73046875,1645.0,24.0,15.0,202658.0
81330.41479492188,1646.0,21.0,12.0,202655.0
81349.09912109375,1647.0,18.0,9.0,202652.0
81367.78344726562,1648.0,15.0,8.0,202651.0
81386.4677734375,1649.0,13.0,8.0,202651.0
81405.15209960938,1650.0,13.0,8.0,202651.0
81423.83642578125,1651.0,15.0,9.0,202652.0
81442.52075195312,1652.0,18.0,11.0,202654.0
81461.205078125,1653.0,22.0,13.0,202656.0
81479.88940429688,1654.0,24.0,16.0,202659.0
81498.57373046875,1655.0,28.0,18.0,202661.0
81517.25805664062,1656.0,31.0,21.0,202664.0
81535.9423828125,1657.0,31.0,22.0,202665.0
81554.62670898438,1658.0,31.0,24.0,202667.0
81573.31103515625,1659.0,29.0,26.0,202669.0
81591.99536132812,1660.0,26.0,27.0,202670.0
81610.6796875,1661.0,25.0,27.0,202670.0
81629.36401367188,1662.0,26.0,29.0,202672.0
81648.04833984375,1663.0,26.0,29.0,202672.0
81666.73266601562,1664.0,29.0,28.0,202671.0
81685.4169921875,1665.0,31.0,28.0,202671.0
81704.10131835938,1666.0,31.0,28.0,202671.0
81722.78564453125,1667.0,31.0,27.0,202670.0
81741.47021484375,1668.0,29.0,26.0,202669.0
81760.15454101562,1669.0,25.0,24.0,202667.0
81778.8388671875,1670.0,19.0,18.0,202661.0
81797.52319335938,1671.0,11.0,11.0,202654.0
81816.20751953125,1672.0,2.0,3.0,202646.0
81834.89184570312,1673.0,-7.0,-5.0,202638.0
81853.576171875,1674.0,-13.0,-12.0,202631.0
81872.26049804688,1675.0,-17.0,-16.0,202627.0
81890.94482421875,1676.0,-19.0,-16.0,202627.0
81909.62915039062,1677.0,-17.0,-15.0,202628.0
81928.3134765625,1678.0,-13.0,-11.0,202632.0
81946.99780273438,1679.0,-8.0,-6.0,202637.0
81965.68212890625,1680.0,-2.0,0.0,202643.0
81984.36645507812,1681.0,4.0,6.0,202649.0
82003.05078125,1682.0,9.0,10.0,202653.0
82021.73510742188,1683.0,12.0,14.0,202657.0
82040.41943359375,1684.0,14.0,17.0,202660.0
82059.10375976562,1685.0,15.0,19.0,202662.0
82077.7880859375,1686.0,15.0,19.0,202662.0
82096.47241210938,1687.0,16.0,19.0,202662.0
82115.15673828125,1688.0,17.0,17.0,202660.0
82133.84106445312,1689.0,16.0,14.0,202657.0
82152.525390625,1690.0,14.0,11.0,202654.0
82171.20971679688,1691.0,11.0,7.0,202650.0
82189.89404296875,1692.0,10.0,5.0,202648.0
82208.57836914062,1693.0,8.0,4.0,202647.0
82227.2626953125,1694.0,6.0,4.0,202647.0
82245.94702148438,1695.0,3.0,3.0,202646.0
82264.63134765625,1696.0,1.0,3.0,202646.0
82283.31591796875,1697.0,0.0,3.0,202646.0
82302.00024414062,1698.0,2.0,5.0,202648.0
82320.6845703125,1699.0,4.0,7.0,202650.0
82339.36889648438,1700.0,6.0,9.0,202652.0
82358.05322265625,1701.0,9.0,12.0,202655.0
82376.73754882812,1702.0,12.0,14.0,202657.0
82395.421875,1703.0,15.0,17.0,202660.0
82414.10620117188,1704.0,17.0,17.0,202660.0
82432.79052734375,1705.0,19.0,19.0,202662.0
82451.47485351562,1706.0,21.0,21.0,202664.0
82470.1591796875,1707.0,22.0,23.0,202666.0
82488.84350585938,1708.0,24.0,24.0,202667.0
82507.52783203125,1709.0,24.0,26.0,202669.0
82526.21215820312,1710.0,24.0,28.0,202671.0
82544.896484375,1711.0,23.0,28.0,202671.0
82563.58081054688,1712.0,23.0,27.0,202670.0
82582.26513671875,1713.0,22.0,26.0,202669.0
82600.94946289062,1714.0,22.0,24.0,202667.0
82619.6337890625,1715.0,19.0,19.0,202662.0
82638.31811523438,1716.0,12.0,12.0,202655.0
82657.00244140625,1717.0,3.0,4.0,202647.0
82675.68676757812,1718.0,-6.0,-4.0,202639.0
82694.37109375,1719.0,-14.0,-12.0,202631.0
82713.05541992188,1720.0,-19.0,-17.0,202626.0
82731.73974609375,1721.0,-22.0,-20.0,202623.0
82750.42407226562,1722.0,-21.0,-19.0,202624.0
82769.1083984375,1723.0,-18.0,-16.0,202627.0
82787.79272460938,1724.0,-13.0,-11.0,202632.0
82806.47705078125,1725.0,-8.0,-6.0,202637.0
82825.16162109375,1726.0,-4.0,-1.0,202642.0
82843.84594726562,1727.0,0.0,2.0,202645.0
82862.5302734375,1728.0,2.0,5.0,202648.0
82881.21459960938,1729.0,4.0,7.0,202650.0
82899.89892578125,1730.0,5.0,9.0,202652.0
82918.58325195312,1731.0,4.0,11.0,202654.0
82937.267578125,1732.0,3.0,11.0,202654.0
82955.95190429688,1733.0,1.0,10.0,202653.0
82974.63623046875,1734.0,-2.0,7.0,202650.0
82993.32055664062,1735.0,-6.0,4.0,202647.0
83012.0048828125,1736.0,-9.0,1.0,202644.0
83030.68920898438,1737.0,-10.0,-1.0,202642.0
83049.37353515625,1738.0,-10.0,-2.0,202641.0
83068.05786132812,1739.0,-9.0,-2.0,202641.0
83086.7421875,1740.0,-8.0,-1.0,202642.0
83105.42651367188,1741.0,-6.0,1.0,202644.0
83124.11083984375,1742.0,-3.0,3.0,202646.0
83142.79516601562,1743.0,1.0,5.0,202648.0
83161.4794921875,1744.0,5.0,9.0,202652.0
83180.16381835938,1745.0,10.0,11.0,202654.0
83198.84814453125,1746.0,13.0,15.0,202658.0
83217.53247070312,1747.0,16.0,18.0,202661.0
83236.216796875,1748.0,20.0,21.0,202664.0
83254.90112304688,1749.0,23.0,23.0,202666.0
83273.58544921875,1750.0,23.0,23.0,202666.0
83292.26977539062,1751.0,23.0,24.0,202667.0
83310.9541015625,1752.0,21.0,24.0,202667.0
83329.63842773438,1753.0,18.0,24.0,202667.0
83348.32275390625,1754.0,15.0,22.0,202665.0
83367.00732421875,1755.0,14.0,21.0,202664.0
83385.69165039062,1756.0,13.0,19.0,202662.0
83404.3759765625,1757.0,10.0,15.0,202658.0
83423.06030273438,1758.0,5.0,7.0,202650.0
83441.74462890625,1759.0,-2.0,-1.0,202642.0
83460.42895507812,1760.0,-9.0,-8.0,202635.0
83479.11328125,1761.0,-16.0,-13.0,202630.0
83497.79760742188,1762.0,-19.0,-17.0,202626.0
83516.48193359375,1763.0,-19.0,-18.0,202625.0
83535.16625976562,1764.0,-17.0,-16.0,202627.0
83553.8505859375,1765.0,-13.0,-13.0,202630.0
83572.53491210938,1766.0,-9.0,-9.0,202634.0
83591.21923828125,1767.0,-4.0,-4.0,202639.0
83609.90356445312,1768.0,2.0,1.0,202644.0
83628.587890625,1769.0,6.0,6.0,202649.0
83647.27221679688,1770.0,10.0,10.0,202653.0
83665.95654296875,1771.0,13.0,13.0,202656.0
83684.64086914062,1772.0,13.0,15.0,202658.0
83703.3251953125,1773.0,12.0,15.0,202658.0
83722.00952148438,1774.0,10.0,13.0,202656.0
83740.69384765625,1775.0,7.0,10.0,202653.0
83759.37817382812,1776.0,4.0,6.0,202649.0
83778.0625,1777.0,-1.0,2.0,202645.0
83796.74682617188,1778.0,-6.0,-1.0,202642.0
83815.43115234375,1779.0,-10.0,-2.0,202641.0
83834.11547851562,1780.0,-10.0,-1.0,202642.0
83852.7998046875,1781.0,-9.0,2.0,202645.0
83871.48413085938,1782.0,-8.0,5.0,202648.0
83890.16845703125,1783.0,-5.0,8.0,202651.0
83908.85302734375,1784.0,-2.0,10.0,202653.0
83927.53735351562,1785.0,2.0,12.0,202655.0
83946.2216796875,1786.0,6.0,15.0,202658.0
83964.90600585938,1787.0,10.0,17.0,202660.0
83983.59033203125,1788.0,14.0,18.0,202661.0
84002.27465820312,1789.0,16.0,20.0,202663.0
84020.958984375,1790.0,15.0,22.0,202665.0
84039.64331054688,1791.0,16.0,22.0,202665.0
84058.32763671875,1792.0,16.0,23.0,202666.0
84077.01196289062,1793.0,16.0,23.0,202666.0
84095.6962890625,1794.0,15.0,22.0,202665.0
84114.38061523438,1795.0,14.0,23.0,202666.0
84133.06494140625,1796.0,13.0,24.0,202667.0
84151.74926757812,1797.0,11.0,25.0,202668.0
84170.43359375,1798.0,6.0,23.0,202666.0
84189.11791992188,1799.0,0.0,17.0,202660.0
84207.80224609375,1800.0,-7.0,9.0,202652.0
84226.48657226562,1801.0,-15.0,-2.0,202641.0
84245.1708984375,1802.0,-22.0,-12.0,202631.0
84263.85522460938,1803.0,-26.0,-20.0,202623.0
84282.53955078125,1804.0,-28.0,-25.0,202618.0
84301.22387695312,1805.0,-27.0,-25.0,202618.0
84319.908203125,1806.0,-23.0,-23.0,202620.0
84338.59252929688,1807.0,-19.0,-19.0,202624.0
84357.27685546875,1808.0,-15.0,-12.0,202631.0
84375.96118164062,1809.0,-12.0,-6.0,202637.0
84394.6455078125,1810.0,-8.0,1.0,202644.0
84413.32983398438,1811.0,-4.0,5.0,202648.0
84432.01416015625,1812.0,2.0,9.0,202652.0
84450.69873046875,1813.0,6.0,11.0,202654.0
84469.38305664062,1814.0,8.0,14.0,202657.0
84488.0673828125,1815.0,9.0,16.0,202659.0
84506.75170898438,1816.0,7.0,16.0,202659.0
84525.43603515625,1817.0,5.0,15.0,202658.0
84544.12036132812,1818.0,4.0,12.0,202655.0
84562.8046875,1819.0,3.0,10.0,202653.0
84581.48901367188,1820.0,2.0,9.0,202652.0
84600.17333984375,1821.0,-1.0,8.0,202651.0
84618.85766601562,1822.0,-3.0,8.0,202651.0
84637.5419921875,1823.0,-5.0,8.0,202651.0
84656.22631835938,1824.0,-6.0,9.0,202652.0
84674.91064453125,1825.0,-5.0,9.0,202652.0
84693.59497070312,1826.0,-4.0,10.0,202653.0
84712.279296875,1827.0,-3.0,11.0,202654.0
84730.96362304688,1828.0,-1.0,12.0,202655.0
84749.64794921875,1829.0,1.0,11.0,202654.0
84768.33227539062,1830.0,3.0,12.0,202655.0
84787.0166015625,1831.0,6.0,13.0,202656.0
84805.70092773438,1832.0,6.0,14.0,202657.0
84824.38525390625,1833.0,6.0,16.0,202659.0
84843.06958007812,1834.0,7.0,18.0,202661.0
84861.75390625,1835.0,7.0,18.0,202661.0
84880.43823242188,1836.0,9.0,20.0,202663.0
84899.12255859375,1837.0,11.0,22.0,202665.0
84917.80688476562,1838.0,12.0,24.0,202667.0
84936.4912109375,1839.0,13.0,24.0,202667.0
84955.17553710938,1840.0,11.0,25.0,202668.0
84973.85986328125,1841.0,9.0,25.0,202668.0
84992.54443359375,1842.0,5.0,22.0,202665.0
85011.22875976562,1843.0,0.0,15.0,202658.0
85029.9130859375,1844.0,-6.0,7.0,202650.0
85048.59741210938,1845.0,-13.0,-3.0,202640.0
85067.28173828125,1846.0,-21.0,-12.0,202631.0
85085.96606445312,1847.0,-28.0,-20.0,202623.0
85104.650390625,1848.0,-33.0,-24.0,202619.0
85123.33471679688,1849.0,-35.0,-25.0,202618.0
85142.01904296875,1850.0,-33.0,-24.0,202619.0
85160.70336914062,1851.0,-29.0,-20.0,202623.0
85179.3876953125,1852.0,-22.0,-15.0,202628.0
85198.07202148438,1853.0,-14.0,-10.0,202633.0
85216.75634765625,1854.0,-7.0,-5.0,202638.0
85235.44067382812,1855.0,-1.0,0.0,202643.0
85254.125,1856.0,2.0,5.0,202648.0
85272.80932617188,1857.0,4.0,8.0,202651.0
85291.49365234375,1858.0,5.0,10.0,202653.0
85310.17797851562,1859.0,6.0,10.0,202653.0
85328.8623046875,1860.0,6.0,10.0,202653.0
85347.54663085938,1861.0,6.0,9.0,202652.0
85366.23095703125,1862.0,5.0,7.0,202650.0
85384.91528320312,1863.0,2.0,3.0,202646.0
85403.599609375,1864.0,-3.0,0.0,202643.0
85422.28393554688,1865.0,-6.0,-3.0,202640.0
85440.96826171875,1866.0,-7.0,-4.0,202639.0
85459.65258789062,1867.0,-8.0,-5.0,202638.0
85478.3369140625,1868.0,-8.0,-3.0,202640.0
85497.02124023438,1869.0,-8.0,-2.0,202641.0
85515.70556640625,1870.0,-7.0,-1.0,202642.0
85534.39013671875,1871.0,-5.0,0.0,202643.0
85553.07446289062,1872.0,-4.0,1.0,202644.0
85571.7587890625,1873.0,0.0,2.0,202645.0
85590.44311523438,1874.0,4.0,3.0,202646.0
85609.12744140625,1875.0,7.0,3.0,202646.0
85627.81176757812,1876.0,11.0,4.0,202647.0
85646.49609375,1877.0,15.0,6.0,202649.0
85665.18041992188,1878.0,16.0,8.0,202651.0
85683.86474609375,1879.0,17.0,10.0,202653.0
85702.54907226562,1880.0,17.0,12.0,202655.0
85721.2333984375,1881.0,15.0,14.0,202657.0
85739.91772460938,1882.0,13.0,14.0,202657.0
85758.60205078125,1883.0,11.0,13.0,202656.0
85777.28637695312,1884.0,11.0,13.0,202656.0
85795.970703125,1885.0,10.0,12.0,202655.0
85814.65502929688,1886.0,8.0,10.0,202653.0
85833.33935546875,1887.0,4.0,5.0,202648.0
85852.02368164062,1888.0,-2.0,-3.0,202640.0
85870.7080078125,1889.0,-8.0,-12.0,202631.0
85889.39233398438,1890.0,-14.0,-20.0,202623.0
85908.07666015625,1891.0,-18.0,-25.0,202618.0
85926.76098632812,1892.0,-21.0,-29.0,202614.0
85945.4453125,1893.0,-21.0,-30.0,202613.0
85964.12963867188,1894.0,-18.0,-28.0,202615.0
85982.81396484375,1895.0,-13.0,-24.0,202619.0
86001.49829101562,1896.0,-8.0,-19.0,202624.0
86020.1826171875,1897.0,-5.0,-15.0,202628.0
86038.86694335938,1898.0,-2.0,-10.0,202633.0
86057.55126953125,1899.0,1.0,-6.0,202637.0
86076.23583984375,1900.0,6.0,-2.0,202641.0
86094.92016601562,1901.0,10.0,1.0,202644.0
86113.6044921875,1902.0,13.0,4.0,202647.0
86132.28881835938,1903.0,14.0,6.0,202649.0
86150.97314453125,1904.0,12.0,5.0,202648.0
86169.65747070312,1905.0,7.0,3.0,202646.0
86188.341796875,1906.0,3.0,-1.0,202642.0
86207.02612304688,1907.0,-2.0,-4.0,202639.0
86225.71044921875,1908.0,-3.0,-7.0,202636.0
86244.39477539062,1909.0,-3.0,-9.0,202634.0
86263.0791015625,1910.0,0.0,-10.0,202633.0
86281.76342773438,1911.0,4.0,-10.0,202633.0
86300.44775390625,1912.0,8.0,-9.0,202634.0
86319.13208007812,1913.0,10.0,-8.0,202635.0
86337.81640625,1914.0,13.0,-6.0,202637.0
86356.50073242188,1915.0,16.0,-4.0,202639.0
86375.18505859375,1916.0,18.0,-2.0,202641.0
86393.86938476562,1917.0,21.0,0.0,202643.0
86412.5537109375,1918.0,25.0,2.0,202645.0
86431.23803710938,1919.0,29.0,5.0,202648.0
86449.92236328125,1920.0,32.0,7.0,202650.0
86468.60668945312,1921.0,32.0,8.0,202651.0
86487.291015625,1922.0,30.0,9.0,202652.0
86505.97534179688,1923.0,28.0,9.0,202652.0
86524.65966796875,1924.0,26.0,9.0,202652.0
86543.34399414062,1925.0,22.0,8.0,202651.0
86562.0283203125,1926.0,18.0,5.0,202648.0
86580.71264648438,1927.0,12.0,-1.0,202642.0
86599.39697265625,1928.0,4.0,-10.0,202633.0
86618.08154296875,1929.0,-4.0,-19.0,202624.0
86636.76586914062,1930.0,-13.0,-28.0,202615.0
86655.4501953125,1931.0,-19.0,-33.0,202610.0
86674.13452148438,1932.0,-23.0,-36.0,202607.0
86692.81884765625,1933.0,-25.0,-37.0,202606.0
86711.50317382812,1934.0,-22.0,-34.0,202609.0
86730.1875,1935.0,-18.0,-30.0,202613.0
86748.87182617188,1936.0,-13.0,-24.0,202619.0
86767.55615234375,1937.0,-7.0,-17.0,202626.0
86786.24047851562,1938.0,0.0,-10.0,202633.0
86804.9248046875,1939.0,4.0,-5.0,202638.0
86823.60913085938,1940.0,4.0,-1.0,202642.0
86842.29345703125,1941.0,0.0,0.0,202643.0
86860.97778320312,1942.0,-4.0,0.0,202643.0
86879.662109375,1943.0,-10.0,-1.0,202642.0
86898.34643554688,1944.0,-14.0,-3.0,202640.0
86917.03076171875,1945.0,-16.0,-6.0,202637.0
86935.71508789062,1946.0,-20.0,-10.0,202633.0
86954.3994140625,1947.0,-24.0,-12.0,202631.0
86973.08374023438,1948.0,-27.0,-15.0,202628.0
86991.76806640625,1949.0,-28.0,-16.0,202627.0
87010.45239257812,1950.0,-29.0,-17.0,202626.0
87029.13671875,1951.0,-28.0,-17.0,202626.0
87047.82104492188,1952.0,-25.0,-15.0,202628.0
87066.50537109375,1953.0,-21.0,-13.0,202630.0
87085.18969726562,1954.0,-18.0,-11.0,202632.0
87103.8740234375,1955.0,-15.0,-9.0,202634.0
87122.55834960938,1956.0,-12.0,-8.0,202635.0
87141.24267578125,1957.0,-11.0,-8.0,202635.0
87159.92724609375,1958.0,-10.0,-8.0,202635.0
87178.61157226562,1959.0,-9.0,-7.0,202636.0
87197.2958984375,1960.0,-8.0,-6.0,202637.0
87215.98022460938,1961.0,-5.0,-4.0,202639.0
87234.66455078125,1962.0,-3.0,-3.0,202640.0
87253.34887695312,1963.0,-1.0,-2.0,202641.0
87272.033203125,1964.0,1.0,0.0,202643.0
87290.71752929688,1965.0,2.0,2.0,202645.0
87309.40185546875,1966.0,1.0,4.0,202647.0
87328.08618164062,1967.0,-1.0,5.0,202648.0
87346.7705078125,1968.0,-4.0,4.0,202647.0
87365.45483398438,1969.0,-10.0,-1.0,202642.0
87384.13916015625,1970.0,-15.0,-8.0,202635.0
87402.82348632812,1971.0,-18.0,-16.0,202627.0
87421.5078125,1972.0,-21.0,-23.0,202620.0
87440.19213867188,1973.0,-22.0,-28.0,202615.0
87458.87646484375,1974.0,-23.0,-32.0,202611.0
87477.56079101562,1975.0,-21.0,-32.0,202611.0
87496.2451171875,1976.0,-20.0,-32.0,202611.0
87514.92944335938,1977.0,-18.0,-28.0,202615.0
87533.61376953125,1978.0,-15.0,-25.0,202618.0
87552.29809570312,1979.0,-9.0,-21.0,202622.0
87570.982421875,1980.0,-5.0,-17.0,202626.0
87589.66674804688,1981.0,-3.0,-12.0,202631.0
87608.35107421875,1982.0,-1.0,-10.0,202633.0
87627.03540039062,1983.0,0.0,-8.0,202635.0
87645.7197265625,1984.0,2.0,-7.0,202636.0
87664.40405273438,1985.0,4.0,-5.0,202638.0
87683.08837890625,1986.0,5.0,-4.0,202639.0
87701.77294921875,1987.0,5.0,-3.0,202640.0
87720.45727539062,1988.0,4.0,-4.0,202639.0
87739.1416015625,1989.0,3.0,-5.0,202638.0
87757.82592773438,1990.0,2.0,-5.0,202638.0
87776.51025390625,1991.0,2.0,-6.0,202637.0
87795.19458007812,1992.0,3.0,-5.0,202638.0
87813.87890625,1993.0,3.0,-6.0,202637.0
87832.56323242188,1994.0,3.0,-7.0,202636.0
87851.24755859375,1995.0,2.0,-7.0,202636.0
87869.93188476562,1996.0,2.0,-6.0,202637.0
87888.6162109375,1997.0,3.0,-5.0,202638.0
87907.30053710938,1998.0,6.0,-4.0,202639.0
87925.98486328125,1999.0,8.0,-3.0,202640.0
87944.66918945312,2000.0,8.0,-3.0,202640.0
87963.353515625,2001.0,7.0,-2.0,202641.0
87982.03784179688,2002.0,7.0,-1.0,202642.0
88000.72216796875,2003.0,7.0,1.0,202644.0
88019.40649414062,2004.0,6.0,2.0,202645.0
88038.0908203125,2005.0,6.0,4.0,202647.0
88056.77514648438,2006.0,7.0,5.0,202648.0
88075.45947265625,2007.0,10.0,7.0,202650.0
88094.14379882812,2008.0,15.0,8.0,202651.0
88112.828125,2009.0,17.0,10.0,202653.0
88131.51245117188,2010.0,18.0,11.0,202654.0
88150.19677734375,2011.0,15.0,11.0,202654.0
88168.88110351562,2012.0,11.0,10.0,202653.0
88187.5654296875,2013.0,4.0,5.0,202648.0
88206.24975585938,2014.0,-4.0,-3.0,202640.0
88224.93408203125,2015.0,-13.0,-12.0,202631.0
88243.61865234375,2016.0,-20.0,-20.0,202623.0
88262.30297851562,2017.0,-25.0,-27.0,202616.0
88280.9873046875,2018.0,-28.0,-31.0,202612.0
88299.67163085938,2019.0,-27.0,-32.0,202611.0
88318.35595703125,2020.0,-24.0,-28.0,202615.0
88337.04028320312,2021.0,-20.0,-24.0,202619.0
88355.724609375,2022.0,-13.0,-20.0,202623.0
88374.40893554688,2023.0,-8.0,-16.0,202627.0
88393.09326171875,2024.0,-5.0,-13.0,202630.0
88411.77758789062,2025.0,-1.0,-10.0,202633.0
88430.4619140625,2026.0,2.0,-7.0,202636.0
88449.14624023438,2027.0,5.0,-3.0,202640.0
88467.83056640625,2028.0,8.0,1.0,202644.0
88486.51489257812,2029.0,10.0,3.0,202646.0
88505.19921875,2030.0,10.0,4.0,202647.0
88523.88354492188,2031.0,8.0,3.0,202646.0
88542.56787109375,2032.0,5.0,1.0,202644.0
88561.25219726562,2033.0,1.0,-2.0,202641.0
88579.9365234375,2034.0,-2.0,-5.0,202638.0
88598.62084960938,2035.0,-3.0,-7.0,202636.0
88617.30517578125,2036.0,-3.0,-9.0,202634.0
88635.98950195312,2037.0,-2.0,-9.0,202634.0
88654.673828125,2038.0,-1.0,-6.0,202637.0
88673.35815429688,2039.0,-1.0,-3.0,202640.0
88692.04248046875,2040.0,0.0,-2.0,202641.0
88710.72680664062,2041.0,0.0,0.0,202643.0
88729.4111328125,2042.0,1.0,1.0,202644.0
88748.09545898438,2043.0,2.0,2.0,202645.0
88766.77978515625,2044.0,4.0,4.0,202647.0
88785.46435546875,2045.0,7.0,5.0,202648.0
88804.14868164062,2046.0,9.0,7.0,202650.0
88822.8330078125,2047.0,9.0,9.0,202652.0
88841.51733398438,2048.0,10.0,10.0,202653.0
88860.20166015625,2049.0,11.0,12.0,202655.0
88878.88598632812,2050.0,12.0,13.0,202656.0
88897.5703125,2051.0,11.0,14.0,202657.0
88916.25463867188,2052.0,10.0,15.0,202658.0
88934.93896484375,2053.0,8.0,15.0,202658.0
88953.62329101562,2054.0,6.0,14.0,202657.0
88972.3076171875,2055.0,2.0,9.0,202652.0
88990.99194335938,2056.0,-4.0,3.0,202646.0
89009.67626953125,2057.0,-10.0,-5.0,202638.0
89028.36059570312,2058.0,-16.0,-13.0,202630.0
89047.044921875,2059.0,-20.0,-21.0,202622.0
89065.72924804688,2060.0,-23.0,-26.0,202617.0
89084.41357421875,2061.0,-25.0,-30.0,202613.0
89103.09790039062,2062.0,-25.0,-31.0,202612.0
89121.7822265625,2063.0,-25.0,-29.0,202614.0
89140.46655273438,2064.0,-23.0,-26.0,202617.0
89159.15087890625,2065.0,-21.0,-21.0,202622.0
89177.83520507812,2066.0,-19.0,-15.0,202628.0
89196.51953125,2067.0,-16.0,-9.0,202634.0
89215.20385742188,2068.0,-12.0,-3.0,202640.0
89233.88818359375,2069.0,-9.0,3.0,202646.0
89252.57250976562,2070.0,-4.0,8.0,202651.0
89271.2568359375,2071.0,-1.0,12.0,202655.0
89289.94116210938,2072.0,1.0,14.0,202657.0
89308.62548828125,2073.0,2.0,14.0,202657.0
89327.31005859375,2074.0,2.0,12.0,202655.0
89345.99438476562,2075.0,0.0,9.0,202652.0
89364.6787109375,2076.0,-3.0,5.0,202648.0
89383.36303710938,2077.0,-4.0,1.0,202644.0
89402.04736328125,2078.0,-6.0,-3.0,202640.0
89420.73168945312,2079.0,-6.0,-5.0,202638.0
89439.416015625,2080.0,-5.0,-6.0,202637.0
89458.10034179688,2081.0,-3.0,-6.0,202637.0
89476.78466796875,2082.0,-1.0,-4.0,202639.0
89495.46899414062,2083.0,2.0,-2.0,202641.0
89514.1533203125,2084.0,6.0,1.0,202644.0
89532.83764648438,2085.0,7.0,4.0,202647.0
89551.52197265625,2086.0,7.0,6.0,202649.0
89570.20629882812,2087.0,7.0,8.0,202651.0
89588.890625,2088.0,9.0,9.0,202652.0
89607.57495117188,2089.0,12.0,10.0,202653.0
89626.25927734375,2090.0,13.0,12.0,202655.0
89644.94360351562,2091.0,14.0,14.0,202657.0
89663.6279296875,2092.0,14.0,16.0,202659.0
89682.31225585938,2093.0,14.0,17.0,202660.0
89700.99658203125,2094.0,14.0,17.0,202660.0
89719.68090820312,2095.0,13.0,16.0,202659.0
89738.365234375,2096.0,8.0,10.0,202653.0
89757.04956054688,2097.0,-1.0,1.0,202644.0
89775.73388671875,2098.0,-11.0,-11.0,202632.0
89794.41821289062,2099.0,-19.0,-21.0,202622.0
89813.1025390625,2100.0,-27.0,-29.0,202614.0
89831.78686523438,2101.0,-32.0,-33.0,202610.0
89850.47119140625,2102.0,-32.0,-34.0,202609.0
89869.15576171875,2103.0,-29.0,-32.0,202611.0
89887.84008789062,2104.0,-23.0,-25.0,202618.0
89906.5244140625,2105.0,-13.0,-18.0,202625.0
89925.20874023438,2106.0,-4.0,-10.0,202633.0
89943.89306640625,2107.0,4.0,-3.0,202640.0
89962.57739257812,2108.0,12.0,4.0,202647.0
89981.26171875,2109.0,19.0,10.0,202653.0
89999.94604492188,2110.0,24.0,15.0,202658.0
90018.63037109375,2111.0,29.0,19.0,202662.0
90037.31469726562,2112.0,30.0,20.0,202663.0
90055.9990234375,2113.0,27.0,19.0,202662.0
90074.68334960938,2114.0,23.0,15.0,202658.0
90093.36767578125,2115.0,18.0,10.0,202653.0
90112.05200195312,2116.0,13.0,5.0,202648.0
90130.736328125,2117.0,6.0,-1.0,202642.0
90149.42065429688,2118.0,2.0,-6.0,202637.0
90168.10498046875,2119.0,-1.0,-9.0,202634.0
90186.78930664062,2120.0,-2.0,-9.0,202634.0
90205.4736328125,2121.0,-2.0,-9.0,202634.0
90224.15795898438,2122.0,-1.0,-6.0,202637.0
90242.84228515625,2123.0,1.0,-4.0,202639.0
90261.52661132812,2124.0,3.0,-1.0,202642.0
90280.2109375,2125.0,4.0,2.0,202645.0
90298.89526367188,2126.0,6.0,5.0,202648.0
90317.57958984375,2127.0,8.0,8.0,202651.0
90336.26391601562,2128.0,10.0,11.0,202654.0
90354.9482421875,2129.0,13.0,14.0,202657.0
90373.63256835938,2130.0,15.0,17.0,202660.0
90392.31689453125,2131.0,17.0,20.0,202663.0
90411.00146484375,2132.0,18.0,23.0,202666.0
90429.68579101562,2133.0,18.0,24.0,202667.0
90448.3701171875,2134.0,18.0,23.0,202666.0
90467.05444335938,2135.0,17.0,23.0,202666.0
90485.73876953125,2136.0,17.0,23.0,202666.0
90504.42309570312,2137.0,17.0,20.0,202663.0
90523.107421875,2138.0,14.0,16.0,202659.0
90541.79174804688,2139.0,8.0,9.0,202652.0
90560.47607421875,2140.0,0.0,-2.0,202641.0
90579.16040039062,2141.0,-9.0,-14.0,202629.0
90597.8447265625,2142.0,-18.0,-24.0,202619.0
90616.52905273438,2143.0,-26.0,-32.0,202611.0
90635.21337890625,2144.0,-31.0,-35.0,202608.0
90653.89770507812,2145.0,-34.0,-36.0,202607.0
90672.58203125,2146.0,-32.0,-32.0,202611.0
90691.26635742188,2147.0,-29.0,-28.0,202615.0
90709.95068359375,2148.0,-23.0,-22.0,202621.0
90728.63500976562,2149.0,-15.0,-14.0,202629.0
90747.3193359375,2150.0,-9.0,-9.0,202634.0
90766.00366210938,2151.0,-2.0,-3.0,202640.0
90784.68798828125,2152.0,3.0,2.0,202645.0
90803.37231445312,2153.0,7.0,8.0,202651.0
90822.056640625,2154.0,8.0,13.0,202656.0
90840.74096679688,2155.0,9.0,16.0,202659.0
90859.42529296875,2156.0,8.0,16.0,202659.0
90878.10961914062,2157.0,6.0,12.0,202655.0
90896.7939453125,2158.0,4.0,7.0,202650.0
90915.47827148438,2159.0,1.0,1.0,202644.0
90934.16259765625,2160.0,-4.0,-5.0,202638.0
90952.84716796875,2161.0,-9.0,-10.0,202633.0
90971.53149414062,2162.0,-11.0,-13.0,202630.0
90990.2158203125,2163.0,-14.0,-14.0,202629.0
91008.90014648438,2164.0,-15.0,-12.0,202631.0
91027.58447265625,2165.0,-16.0,-11.0,202632.0
91046.26879882812,2166.0,-16.0,-8.0,202635.0
91064.953125,2167.0,-17.0,-4.0,202639.0
91083.63745117188,2168.0,-16.0,-2.0,202641.0
91102.32177734375,2169.0,-14.0,1.0,202644.0
91121.00610351562,2170.0,-11.0,3.0,202646.0
91139.6904296875,2171.0,-6.0,6.0,202649.0
91158.37475585938,2172.0,-2.0,8.0,202651.0
91177.05908203125,2173.0,1.0,9.0,202652.0
91195.74340820312,2174.0,4.0,11.0,202654.0
91214.427734375,2175.0,5.0,12.0,202655.0
91233.11206054688,2176.0,6.0,15.0,202658.0
91251.79638671875,2177.0,6.0,15.0,202658.0
91270.48071289062,2178.0,6.0,16.0,202659.0
91289.1650390625,2179.0,6.0,16.0,202659.0
91307.84936523438,2180.0,6.0,17.0,202660.0
91326.53369140625,2181.0,6.0,18.0,202661.0
91345.21801757812,2182.0,6.0,17.0,202660.0
91363.90234375,2183.0,5.0,14.0,202657.0
91382.58666992188,2184.0,-1.0,7.0,202650.0
91401.27099609375,2185.0,-9.0,-2.0,202641.0
91419.95532226562,2186.0,-16.0,-13.0,202630.0
91438.6396484375,2187.0,-22.0,-23.0,202620.0
91457.32397460938,2188.0,-27.0,-32.0,202611.0
91476.00830078125,2189.0,-28.0,-36.0,202607.0
91494.69287109375,2190.0,-28.0,-36.0,202607.0
91513.37719726562,2191.0,-24.0,-33.0,202610.0
91532.0615234375,2192.0,-18.0,-28.0,202615.0
91550.74584960938,2193.0,-9.0,-21.0,202622.0
91569.43017578125,2194.0,-1.0,-13.0,202630.0
91588.11450195312,2195.0,6.0,-6.0,202637.0
91606.798828125,2196.0,11.0,1.0,202644.0
91625.48315429688,2197.0,16.0,7.0,202650.0
91644.16748046875,2198.0,19.0,13.0,202656.0
91662.85180664062,2199.0,23.0,17.0,202660.0
91681.5361328125,2200.0,24.0,18.0,202661.0
91700.22045898438,2201.0,22.0,16.0,202659.0
91718.90478515625,2202.0,17.0,12.0,202655.0
91737.58911132812,2203.0,12.0,7.0,202650.0
91756.2734375,2204.0,8.0,2.0,202645.0
91774.95776367188,2205.0,6.0,-3.0,202640.0
91793.64208984375,2206.0,4.0,-6.0,202637.0
91812.32641601562,2207.0,3.0,-7.0,202636.0
91831.0107421875,2208.0,0.0,-7.0,202636.0
91849.69506835938,2209.0,-3.0,-7.0,202636.0
91868.37939453125,2210.0,-5.0,-7.0,202636.0
91887.06372070312,2211.0,-5.0,-5.0,202638.0
91905.748046875,2212.0,-4.0,-3.0,202640.0
91924.43237304688,2213.0,-2.0,-1.0,202642.0
91943.11669921875,2214.0,0.0,0.0,202643.0
91961.80102539062,2215.0,0.0,3.0,202646.0
91980.4853515625,2216.0,-1.0,5.0,202648.0
91999.16967773438,2217.0,-2.0,7.0,202650.0
92017.85400390625,2218.0,-2.0,8.0,202651.0
92036.53857421875,2219.0,-2.0,8.0,202651.0
92055.22290039062,2220.0,-2.0,8.0,202651.0
92073.9072265625,2221.0,-3.0,7.0,202650.0
92092.59155273438,2222.0,-3.0,5.0,202648.0
92111.27587890625,2223.0,-2.0,4.0,202647.0
92129.96020507812,2224.0,-1.0,2.0,202645.0
92148.64453125,2225.0,-2.0,-1.0,202642.0
92167.32885742188,2226.0,-7.0,-7.0,202636.0
92186.01318359375,2227.0,-15.0,-16.0,202627.0
92204.69750976562,2228.0,-24.0,-25.0,202618.0
92223.3818359375,2229.0,-33.0,-34.0,202609.0
92242.06616210938,2230.0,-38.0,-40.0,202603.0
92260.75048828125,2231.0,-39.0,-43.0,202600.0
92279.43481445312,2232.0,-38.0,-41.0,202602.0
92298.119140625,2233.0,-35.0,-38.0,202605.0
92316.80346679688,2234.0,-33.0,-31.0,202612.0
92335.48779296875,2235.0,-28.0,-24.0,202619.0
92354.17211914062,2236.0,-22.0,-18.0,202625.0
92372.8564453125,2237.0,-15.0,-12.0,202631.0
92391.54077148438,2238.0,-9.0,-7.0,202636.0
92410.22509765625,2239.0,-4.0,-2.0,202641.0
92428.90942382812,2240.0,-2.0,2.0,202645.0
92447.59375,2241.0,-1.0,4.0,202647.0
92466.27807617188,2242.0,-1.0,5.0,202648.0
92484.96240234375,2243.0,0.0,4.0,202647.0
92503.64672851562,2244.0,-2.0,1.0,202644.0
92522.3310546875,2245.0,-4.0,-2.0,202641.0
92541.01538085938,2246.0,-6.0,-6.0,202637.0
92559.69970703125,2247.0,-6.0,-10.0,202633.0
92578.38427734375,2248.0,-4.0,-12.0,202631.0
92597.06860351562,2249.0,-1.0,-13.0,202630.0
92615.7529296875,2250.0,2.0,-13.0,202630.0
92634.43725585938,2251.0,4.0,-12.0,202631.0
92653.12158203125,2252.0,5.0,-9.0,202634.0
92671.80590820312,2253.0,5.0,-8.0,202635.0
92690.490234375,2254.0,5.0,-7.0,202636.0
92709.17456054688,2255.0,6.0,-5.0,202638.0
92727.85888671875,2256.0,6.0,-3.0,202640.0
92746.54321289062,2257.0,6.0,-1.0,202642.0
92765.2275390625,2258.0,5.0,1.0,202644.0
92783.91186523438,2259.0,5.0,3.0,202646.0
92802.59619140625,2260.0,6.0,6.0,202649.0
92821.28051757812,2261.0,8.0,9.0,202652.0
92839.96484375,2262.0,10.0,12.0,202655.0
92858.64916992188,2263.0,11.0,13.0,202656.0
92877.33349609375,2264.0,11.0,14.0,202657.0
92896.01782226562,2265.0,11.0,12.0,202655.0
92914.7021484375,2266.0,9.0,9.0,202652.0
92933.38647460938,2267.0,4.0,3.0,202646.0
92952.07080078125,2268.0,-4.0,-6.0,202637.0
92970.75512695312,2269.0,-15.0,-18.0,202625.0
92989.439453125,2270.0,-25.0,-29.0,202614.0
93008.12377929688,2271.0,-33.0,-37.0,202606.0
93026.80810546875,2272.0,-38.0,-43.0,202600.0
93045.49243164062,2273.0,-37.0,-44.0,202599.0
93064.1767578125,2274.0,-33.0,-43.0,202600.0
93082.86108398438,2275.0,-27.0,-40.0,202603.0
93101.54541015625,2276.0,-22.0,-36.0,202607.0
93120.22998046875,2277.0,-16.0,-28.0,202615.0
93138.91430664062,2278.0,-7.0,-20.0,202623.0
93157.5986328125,2279.0,2.0,-12.0,202631.0
93176.28295898438,2280.0,10.0,-4.0,202639.0
93194.96728515625,2281.0,17.0,2.0,202645.0
93213.65161132812,2282.0,22.0,6.0,202649.0
93232.3359375,2283.0,25.0,9.0,202652.0
93251.02026367188,2284.0,26.0,9.0,202652.0
93269.70458984375,2285.0,23.0,8.0,202651.0
93288.38891601562,2286.0,18.0,6.0,202649.0
93307.0732421875,2287.0,12.0,2.0,202645.0
93325.75756835938,2288.0,7.0,-1.0,202642.0
93344.44189453125,2289.0,2.0,-4.0,202639.0
93363.12622070312,2290.0,0.0,-7.0,202636.0
93381.810546875,2291.0,1.0,-8.0,202635.0
93400.49487304688,2292.0,3.0,-8.0,202635.0
93419.17919921875,2293.0,6.0,-7.0,202636.0
93437.86352539062,2294.0,10.0,-5.0,202638.0
93456.5478515625,2295.0,15.0,-2.0,202641.0
93475.23217773438,2296.0,17.0,1.0,202644.0
93493.91650390625,2297.0,20.0,4.0,202647.0
93512.60083007812,2298.0,22.0,6.0,202649.0
93531.28515625,2299.0,22.0,8.0,202651.0
93549.96948242188,2300.0,21.0,9.0,202652.0
93568.65380859375,2301.0,22.0,10.0,202653.0
93587.33813476562,2302.0,24.0,11.0,202654.0
93606.0224609375,2303.0,26.0,12.0,202655.0
93624.70678710938,2304.0,26.0,12.0,202655.0
93643.39111328125,2305.0,27.0,13.0,202656.0
93662.07568359375,2306.0,28.0,12.0,202655.0
93680.76000976562,2307.0,29.0,13.0,202656.0
93699.4443359375,2308.0,29.0,13.0,202656.0
93718.12866210938,2309.0,27.0,12.0,202655.0
93736.81298828125,2310.0,20.0,8.0,202651.0
93755.49731445312,2311.0,12.0,1.0,202644.0
93774.181640625,2312.0,2.0,-8.0,202635.0
93792.86596679688,2313.0,-7.0,-17.0,202626.0
93811.55029296875,2314.0,-14.0,-26.0,202617.0
93830.23461914062,2315.0,-19.0,-32.0,202611.0
93848.9189453125,2316.0,-21.0,-34.0,202609.0
93867.60327148438,2317.0,-22.0,-34.0,202609.0
93886.28759765625,2318.0,-23.0,-31.0,202612.0
93904.97192382812,2319.0,-21.0,-28.0,202615.0
93923.65625,2320.0,-15.0,-23.0,202620.0
93942.34057617188,2321.0,-9.0,-18.0,202625.0
93961.02490234375,2322.0,-3.0,-14.0,202629.0
93979.70922851562,2323.0,2.0,-10.0,202633.0
93998.3935546875,2324.0,5.0,-7.0,202636.0
94017.07788085938,2325.0,8.0,-4.0,202639.0
94035.76220703125,2326.0,10.0,-2.0,202641.0
94054.44653320312,2327.0,10.0,-1.0,202642.0
94073.130859375,2328.0,8.0,-2.0,202641.0
94091.81518554688,2329.0,5.0,-4.0,202639.0
94110.49951171875,2330.0,0.0,-7.0,202636.0
94129.18383789062,2331.0,-2.0,-10.0,202633.0
94147.8681640625,2332.0,-3.0,-12.0,202631.0
94166.55249023438,2333.0,-2.0,-14.0,202629.0
94185.23681640625,2334.0,-1.0,-15.0,202628.0
94203.92138671875,2335.0,1.0,-15.0,202628.0
94222.60571289062,2336.0,2.0,-14.0,202629.0
94241.2900390625,2337.0,3.0,-11.0,202632.0
94259.97436523438,2338.0,4.0,-8.0,202635.0
94278.65869140625,2339.0,3.0,-6.0,202637.0
94297.34301757812,2340.0,3.0,-4.0,202639.0
94316.02734375,2341.0,3.0,-2.0,202641.0
94334.71166992188,2342.0,3.0,1.0,202644.0
94353.39599609375,2343.0,4.0,3.0,202646.0
94372.08032226562,2344.0,6.0,5.0,202648.0
94390.7646484375,2345.0,9.0,6.0,202649.0
94409.44897460938,2346.0,11.0,7.0,202650.0
94428.13330078125,2347.0,12.0,7.0,202650.0
94446.81762695312,2348.0,13.0,7.0,202650.0
94465.501953125,2349.0,14.0,7.0,202650.0
94484.18627929688,2350.0,15.0,7.0,202650.0
94502.87060546875,2351.0,15.0,8.0,202651.0
94521.55493164062,2352.0,16.0,8.0,202651.0
94540.2392578125,2353.0,16.0,8.0,202651.0
94558.92358398438,2354.0,15.0,6.0,202649.0
94577.60791015625,2355.0,11.0,1.0,202644.0
94596.29223632812,2356.0,4.0,-7.0,202636.0
94614.9765625,2357.0,-5.0,-18.0,202625.0
94633.66088867188,2358.0,-14.0,-29.0,202614.0
94652.34521484375,2359.0,-22.0,-37.0,202606.0
94671.02954101562,2360.0,-29.0,-44.0,202599.0
94689.7138671875,2361.0,-31.0,-46.0,202597.0
94708.39819335938,2362.0,-29.0,-46.0,202597.0
94727.08251953125,2363.0,-26.0,-42.0,202601.0
94745.76708984375,2364.0,-22.0,-38.0,202605.0
94764.45141601562,2365.0,-16.0,-32.0,202611.0
94783.1357421875,2366.0,-12.0,-27.0,202616.0
94801.82006835938,2367.0,-8.0,-21.0,202622.0
94820.50439453125,2368.0,-4.0,-14.0,202629.0
94839.18872070312,2369.0,1.0,-8.0,202635.0
94857.873046875,2370.0,6.0,-3.0,202640.0
94876.55737304688,2371.0,10.0,1.0,202644.0
94895.24169921875,2372.0,12.0,2.0,202645.0
94913.92602539062,2373.0,12.0,1.0,202644.0
94932.6103515625,2374.0,9.0,0.0,202643.0
94951.29467773438,2375.0,4.0,-4.0,202639.0
94969.97900390625,2376.0,-2.0,-9.0,202634.0
94988.66333007812,2377.0,-8.0,-13.0,202630.0
95007.34765625,2378.0,-12.0,-17.0,202626.0
95026.03198242188,2379.0,-14.0,-19.0,202624.0
95044.71630859375,2380.0,-14.0,-18.0,202625.0
95063.40063476562,2381.0,-13.0,-17.0,202626.0
95082.0849609375,2382.0,-10.0,-16.0,202627.0
95100.76928710938,2383.0,-7.0,-14.0,202629.0
95119.45361328125,2384.0,-3.0,-12.0,202631.0
95138.13793945312,2385.0,-1.0,-9.0,202634.0
95156.822265625,2386.0,3.0,-6.0,202637.0
95175.50659179688,2387.0,7.0,-3.0,202640.0
95194.19091796875,2388.0,11.0,-1.0,202642.0
95212.87524414062,2389.0,13.0,2.0,202645.0
95231.5595703125,2390.0,15.0,4.0,202647.0
95250.24389648438,2391.0,16.0,5.0,202648.0
95268.92822265625,2392.0,16.0,5.0,202648.0
95287.61279296875,2393.0,17.0,6.0,202649.0
95306.29711914062,2394.0,18.0,6.0,202649.0
95324.9814453125,2395.0,16.0,4.0,202647.0
95343.66577148438,2396.0,14.0,-1.0,202642.0
95362.35009765625,2397.0,8.0,-7.0,202636.0
95381.03442382812,2398.0,0.0,-14.0,202629.0
95399.71875,2399.0,-9.0,-22.0,202621.0
95418.40307617188,2400.0,-16.0,-29.0,202614.0
95437.08740234375,2401.0,-20.0,-33.0,202610.0
95455.77172851562,2402.0,-21.0,-32.0,202611.0
95474.4560546875,2403.0,-20.0,-31.0,202612.0
95493.14038085938,2404.0,-18.0,-27.0,202616.0
95511.82470703125,2405.0,-15.0,-23.0,202620.0
95530.50903320312,2406.0,-13.0,-19.0,202624.0
95549.193359375,2407.0,-10.0,-15.0,202628.0
95567.87768554688,2408.0,-6.0,-11.0,202632.0
95586.56201171875,2409.0,-2.0,-6.0,202637.0
95605.24633789062,2410.0,2.0,-2.0,202641.0
95623.9306640625,2411.0,4.0,1.0,202644.0
95642.61499023438,2412.0,5.0,2.0,202645.0
95661.29931640625,2413.0,5.0,2.0,202645.0
95679.98364257812,2414.0,3.0,-1.0,202642.0
95698.66796875,2415.0,1.0,-4.0,202639.0
95717.35229492188,2416.0,0.0,-7.0,202636.0
95736.03662109375,2417.0,-1.0,-9.0,202634.0
95754.72094726562,2418.0,-1.0,-11.0,202632.0
95773.4052734375,2419.0,-1.0,-11.0,202632.0
95792.08959960938,2420.0,0.0,-10.0,202633.0
95810.77392578125,2421.0,2.0,-8.0,202635.0
95829.45849609375,2422.0,4.0,-7.0,202636.0
95848.14282226562,2423.0,5.0,-4.0,202639.0
95866.8271484375,2424.0,6.0,-3.0,202640.0
95885.51147460938,2425.0,6.0,-1.0,202642.0
95904.19580078125,2426.0,8.0,2.0,202645.0
95922.88012695312,2427.0,9.0,5.0,202648.0
95941.564453125,2428.0,9.0,7.0,202650.0
95960.24877929688,2429.0,9.0,6.0,202649.0
95978.93310546875,2430.0,8.0,5.0,202648.0
95997.61743164062,2431.0,7.0,5.0,202648.0
96016.3017578125,2432.0,7.0,5.0,202648.0
96034.98608398438,2433.0,8.0,6.0,202649.0
96053.67041015625,2434.0,8.0,7.0,202650.0
96072.35473632812,2435.0,8.0,9.0,202652.0
96091.0390625,2436.0,8.0,10.0,202653.0
96109.72338867188,2437.0,4.0,8.0,202651.0
96128.40771484375,2438.0,-2.0,3.0,202646.0
96147.09204101562,2439.0,-9.0,-5.0,202638.0
96165.7763671875,2440.0,-16.0,-14.0,202629.0
96184.46069335938,2441.0,-22.0,-23.0,202620.0
96203.14501953125,2442.0,-26.0,-30.0,202613.0
96221.82934570312,2443.0,-27.0,-32.0,202611.0
96240.513671875,2444.0,-26.0,-32.0,202611.0
96259.19799804688,2445.0,-24.0,-30.0,202613.0
96277.88232421875,2446.0,-22.0,-25.0,202618.0
96296.56665039062,2447.0,-20.0,-20.0,202623.0
96315.2509765625,2448.0,-17.0,-16.0,202627.0
96333.93530273438,2449.0,-15.0,-11.0,202632.0
96352.61962890625,2450.0,-11.0,-8.0,202635.0
96371.30419921875,2451.0,-7.0,-4.0,202639.0
96389.98852539062,2452.0,-2.0,-1.0,202642.0
96408.6728515625,2453.0,0.0,2.0,202645.0
96427.35717773438,2454.0,2.0,4.0,202647.0
96446.04150390625,2455.0,2.0,3.0,202646.0
96464.72583007812,2456.0,1.0,1.0,202644.0
96483.41015625,2457.0,-1.0,-2.0,202641.0
96502.09448242188,2458.0,-3.0,-5.0,202638.0
96520.77880859375,2459.0,-3.0,-8.0,202635.0
96539.46313476562,2460.0,-3.0,-10.0,202633.0
96558.1474609375,2461.0,-3.0,-11.0,202632.0
96576.83178710938,2462.0,-3.0,-10.0,202633.0
96595.51611328125,2463.0,-2.0,-9.0,202634.0
96614.20043945312,2464.0,-1.0,-8.0,202635.0
96632.884765625,2465.0,0.0,-4.0,202639.0
96651.56909179688,2466.0,1.0,-1.0,202642.0
96670.25341796875,2467.0,3.0,2.0,202645.0
96688.93774414062,2468.0,4.0,4.0,202647.0
96707.6220703125,2469.0,3.0,4.0,202647.0
96726.30639648438,2470.0,3.0,4.0,202647.0
96744.99072265625,2471.0,2.0,3.0,202646.0
96763.67504882812,2472.0,2.0,4.0,202647.0
96782.359375,2473.0,2.0,6.0,202649.0
96801.04370117188,2474.0,3.0,7.0,202650.0
96819.72802734375,2475.0,3.0,9.0,202652.0
96838.41235351562,2476.0,4.0,10.0,202653.0
96857.0966796875,2477.0,5.0,11.0,202654.0
96875.78100585938,2478.0,5.0,10.0,202653.0
96894.46533203125,2479.0,5.0,9.0,202652.0
96913.14990234375,2480.0,5.0,6.0,202649.0
96931.83422851562,2481.0,2.0,2.0,202645.0
96950.5185546875,2482.0,-3.0,-5.0,202638.0
96969.20288085938,2483.0,-10.0,-14.0,202629.0
96987.88720703125,2484.0,-17.0,-23.0,202620.0
97006.57153320312,2485.0,-24.0,-30.0,202613.0
97025.255859375,2486.0,-29.0,-33.0,202610.0
97043.94018554688,2487.0,-33.0,-35.0,202608.0
97062.62451171875,2488.0,-34.0,-34.0,202609.0
97081.30883789062,2489.0,-32.0,-31.0,202612.0
97099.9931640625,2490.0,-28.0,-27.0,202616.0
97118.67749023438,2491.0,-24.0,-23.0,202620.0
97137.36181640625,2492.0,-20.0,-17.0,202626.0
97156.04614257812,2493.0,-17.0,-12.0,202631.0
97174.73046875,2494.0,-13.0,-8.0,202635.0
97193.41479492188,2495.0,-9.0,-4.0,202639.0
97212.09912109375,2496.0,-6.0,-2.0,202641.0
97230.78344726562,2497.0,-2.0,0.0,202643.0
97249.4677734375,2498.0,-1.0,0.0,202643.0
97268.15209960938,2499.0,-2.0,0.0,202643.0
97286.83642578125,2500.0,-4.0,-2.0,202641.0
97305.52075195312,2501.0,-7.0,-5.0,202638.0
97324.205078125,2502.0,-10.0,-7.0,202636.0
97342.88940429688,2503.0,-10.0,-8.0,202635.0
97361.57373046875,2504.0,-9.0,-7.0,202636.0
97380.25805664062,2505.0,-8.0,-5.0,202638.0
97398.9423828125,2506.0,-7.0,-4.0,202639.0
97417.62670898438,2507.0,-5.0,-3.0,202640.0
97436.31103515625,2508.0,-3.0,-1.0,202642.0
97454.99560546875,2509.0,-2.0,1.0,202644.0
97473.67993164062,2510.0,-1.0,3.0,202646.0
97492.3642578125,2511.0,2.0,5.0,202648.0
97511.04858398438,2512.0,5.0,8.0,202651.0
97529.73291015625,2513.0,8.0,9.0,202652.0
97548.41723632812,2514.0,10.0,9.0,202652.0
97567.1015625,2515.0,10.0,9.0,202652.0
97585.78588867188,2516.0,9.0,10.0,202653.0
97604.47021484375,2517.0,9.0,11.0,202654.0
97623.15454101562,2518.0,9.0,12.0,202655.0
97641.8388671875,2519.0,11.0,13.0,202656.0
97660.52319335938,2520.0,13.0,14.0,202657.0
97679.20751953125,2521.0,13.0,14.0,202657.0
97697.89184570312,2522.0,12.0,14.0,202657.0
97716.576171875,2523.0,10.0,14.0,202657.0
97735.26049804688,2524.0,9.0,12.0,202655.0
97753.94482421875,2525.0,9.0,10.0,202653.0
97772.62915039062,2526.0,8.0,7.0,202650.0
97791.3134765625,2527.0,5.0,2.0,202645.0
97809.99780273438,2528.0,-1.0,-5.0,202638.0
97828.68212890625,2529.0,-9.0,-13.0,202630.0
97847.36645507812,2530.0,-19.0,-22.0,202621.0
97866.05078125,2531.0,-27.0,-28.0,202615.0
97884.73510742188,2532.0,-33.0,-32.0,202611.0
97903.41943359375,2533.0,-34.0,-34.0,202609.0
97922.10375976562,2534.0,-32.0,-32.0,202611.0
97940.7880859375,2535.0,-26.0,-28.0,202615.0
97959.47241210938,2536.0,-22.0,-23.0,202620.0
97978.15673828125,2537.0,-18.0,-18.0,202625.0
97996.84130859375,2538.0,-15.0,-11.0,202632.0
98015.52563476562,2539.0,-9.0,-7.0,202636.0
98034.2099609375,2540.0,-4.0,-2.0,202641.0
98052.89428710938,2541.0,1.0,1.0,202644.0
98071.57861328125,2542.0,5.0,4.0,202647.0
98090.26293945312,2543.0,8.0,5.0,202648.0
98108.947265625,2544.0,6.0,5.0,202648.0
98127.63159179688,2545.0,1.0,3.0,202646.0
98146.31591796875,2546.0,-6.0,0.0,202643.0
98165.00024414062,2547.0,-14.0,-4.0,202639.0
98183.6845703125,2548.0,-21.0,-6.0,202637.0
98202.36889648438,2549.0,-27.0,-8.0,202635.0
98221.05322265625,2550.0,-30.0,-9.0,202634.0
98239.73754882812,2551.0,-29.0,-10.0,202633.0
98258.421875,2552.0,-28.0,-11.0,202632.0
98277.10620117188,2553.0,-26.0,-11.0,202632.0
98295.79052734375,2554.0,-24.0,-11.0,202632.0
98314.47485351562,2555.0,-23.0,-8.0,202635.0
98333.1591796875,2556.0,-22.0,-6.0,202637.0
98351.84350585938,2557.0,-20.0,-3.0,202640.0
98370.52783203125,2558.0,-17.0,-1.0,202642.0
98389.21215820312,2559.0,-15.0,0.0,202643.0
98407.896484375,2560.0,-13.0,0.0,202643.0
98426.58081054688,2561.0,-12.0,-1.0,202642.0
98445.26513671875,2562.0,-13.0,-1.0,202642.0
98463.94946289062,2563.0,-14.0,-1.0,202642.0
98482.6337890625,2564.0,-16.0,-1.0,202642.0
98501.31811523438,2565.0,-17.0,-1.0,202642.0
98520.00244140625,2566.0,-17.0,0.0,202643.0
98538.68701171875,2567.0,-16.0,1.0,202644.0
98557.37133789062,2568.0,-14.0,1.0,202644.0
98576.0556640625,2569.0,-16.0,0.0,202643.0
98594.73999023438,2570.0,-19.0,-3.0,202640.0
98613.42431640625,2571.0,-24.0,-7.0,202636.0
98632.10864257812,2572.0,-29.0,-14.0,202629.0
98650.79296875,2573.0,-34.0,-22.0,202621.0
98669.47729492188,2574.0,-38.0,-28.0,202615.0
98688.16162109375,2575.0,-40.0,-32.0,202611.0
98706.84594726562,2576.0,-42.0,-34.0,202609.0
98725.5302734375,2577.0,-42.0,-33.0,202610.0
98744.21459960938,2578.0,-41.0,-30.0,202613.0
98762.89892578125,2579.0,-38.0,-27.0,202616.0
98781.58325195312,2580.0,-36.0,-21.0,202622.0
98800.267578125,2581.0,-31.0,-17.0,202626.0
98818.95190429688,2582.0,-27.0,-13.0,202630.0
98837.63623046875,2583.0,-23.0,-9.0,202634.0
98856.32055664062,2584.0,-19.0,-6.0,202637.0
98875.0048828125,2585.0,-16.0,-4.0,202639.0
98893.68920898438,2586.0,-16.0,-3.0,202640.0
98912.37353515625,2587.0,-16.0,-4.0,202639.0
98931.05786132812,2588.0,-18.0,-7.0,202636.0
98949.7421875,2589.0,-20.0,-10.0,202633.0
98968.42651367188,2590.0,-22.0,-14.0,202629.0
98987.11083984375,2591.0,-24.0,-18.0,202625.0
99005.79516601562,2592.0,-26.0,-20.0,202623.0
99024.4794921875,2593.0,-27.0,-21.0,202622.0
99043.16381835938,2594.0,-28.0,-18.0,202625.0
99061.84814453125,2595.0,-26.0,-16.0,202627.0
99080.53271484375,2596.0,-22.0,-13.0,202630.0
99099.21704101562,2597.0,-20.0,-11.0,202632.0
99117.9013671875,2598.0,-16.0,-8.0,202635.0
99136.58569335938,2599.0,-13.0,-6.0,202637.0
99155.27001953125,2600.0,-10.0,-3.0,202640.0
99173.95434570312,2601.0,-7.0,-2.0,202641.0
99192.638671875,2602.0,-6.0,-1.0,202642.0
99211.32299804688,2603.0,-6.0,0.0,202643.0
99230.00732421875,2604.0,-7.0,1.0,202644.0
99248.69165039062,2605.0,-7.0,4.0,202647.0
99267.3759765625,2606.0,-4.0,8.0,202651.0
99286.06030273438,2607.0,2.0,12.0,202655.0
99304.74462890625,2608.0,10.0,14.0,202657.0
99323.42895507812,2609.0,17.0,17.0,202660.0
99342.11328125,2610.0,19.0,18.0,202661.0
99360.79760742188,2611.0,16.0,15.0,202658.0
99379.48193359375,2612.0,10.0,9.0,202652.0
99398.16625976562,2613.0,3.0,0.0,202643.0
99416.8505859375,2614.0,-6.0,-11.0,202632.0
99435.53491210938,2615.0,-15.0,-20.0,202623.0
99454.21923828125,2616.0,-22.0,-27.0,202616.0
99472.90356445312,2617.0,-24.0,-31.0,202612.0
99491.587890625,2618.0,-24.0,-31.0,202612.0
99510.27221679688,2619.0,-21.0,-30.0,202613.0
99528.95654296875,2620.0,-17.0,-27.0,202616.0
