timestamp,sampleNum,BIOZI,BIOZQ,BIOZ
28108.6826171875,1.0,28432.0,8430.0,123156.0
28135.365478515625,2.0,119158.0,-23728.0,90998.0
28162.048095703125,3.0,260984.0,-84609.0,30117.0
28188.730712890625,4.0,331961.0,-114726.0,0.0
28215.413330078125,5.0,318846.0,-109089.0,5637.0
28242.09619140625,6.0,302384.0,-102475.0,12251.0
28268.77880859375,7.0,300419.0,-102022.0,12704.0
28295.46142578125,8.0,299064.0,-101769.0,12957.0
28322.14404296875,9.0,295257.0,-100482.0,14244.0
28348.826904296875,10.0,291405.0,-99165.0,15561.0
28375.509521484375,11.0,288035.0,-98030.0,16696.0
28402.192138671875,12.0,284729.0,-96909.0,17817.0
28428.874755859375,13.0,281387.0,-95761.0,18965.0
28455.5576171875,14.0,278078.0,-94625.0,20101.0
28482.240234375,15.0,274818.0,-93516.0,21210.0
28508.9228515625,16.0,271600.0,-92428.0,22298.0
28535.605712890625,17.0,268422.0,-91350.0,23376.0
28562.288330078125,18.0,265281.0,-90272.0,24454.0
28588.970947265625,19.0,262174.0,-89205.0,25521.0
28615.653564453125,20.0,259106.0,-88156.0,26570.0
28642.33642578125,21.0,256079.0,-87120.0,27606.0
28669.01904296875,22.0,253084.0,-86099.0,28627.0
28695.70166015625,23.0,250119.0,-85096.0,29630.0
28722.38427734375,24.0,247190.0,-84103.0,30623.0
28749.067138671875,25.0,244300.0,-83115.0,31611.0
28775.749755859375,26.0,241441.0,-82128.0,32598.0
28802.432373046875,27.0,238613.0,-81150.0,33576.0
28829.114990234375,28.0,235821.0,-80193.0,34533.0
28855.7978515625,29.0,233064.0,-79255.0,35471.0
28882.48046875,30.0,230338.0,-78325.0,36401.0
28909.1630859375,31.0,227647.0,-77399.0,37327.0
28935.845703125,32.0,224982.0,-76484.0,38242.0
28962.528564453125,33.0,222333.0,-75595.0,39131.0
28989.211181640625,34.0,219697.0,-74736.0,39990.0
29015.893798828125,35.0,217094.0,-73889.0,40837.0
29042.57666015625,36.0,214541.0,-73040.0,41686.0
29069.25927734375,37.0,212033.0,-72190.0,42536.0
29095.94189453125,38.0,209556.0,-71340.0,43386.0
29122.62451171875,39.0,207100.0,-70495.0,44231.0
29149.307373046875,40.0,204668.0,-69658.0,45068.0
29175.989990234375,41.0,202272.0,-68835.0,45891.0
29202.672607421875,42.0,199911.0,-68025.0,46701.0
29229.355224609375,43.0,197578.0,-67225.0,47501.0
29256.0380859375,44.0,195268.0,-66437.0,48289.0
29282.720703125,45.0,192986.0,-65664.0,49062.0
29309.4033203125,46.0,190737.0,-64900.0,49826.0
29336.0859375,47.0,188510.0,-64145.0,50581.0
29362.768798828125,48.0,186298.0,-63387.0,51339.0
29389.451416015625,49.0,184112.0,-62634.0,52092.0
29416.134033203125,50.0,181963.0,-61898.0,52828.0
29442.81689453125,51.0,179845.0,-61176.0,53550.0
29469.49951171875,52.0,177749.0,-60459.0,54267.0
29496.18212890625,53.0,175670.0,-59744.0,54982.0
29522.86474609375,54.0,173612.0,-59034.0,55692.0
29549.547607421875,55.0,171579.0,-58334.0,56392.0
29576.230224609375,56.0,169569.0,-57645.0,57081.0
29602.912841796875,57.0,167579.0,-56964.0,57762.0
29629.595458984375,58.0,165610.0,-56291.0,58435.0
29656.2783203125,59.0,163653.0,-55637.0,59089.0
29682.9609375,60.0,161704.0,-55008.0,59718.0
29709.6435546875,61.0,159782.0,-54390.0,60336.0
29736.326171875,62.0,157901.0,-53762.0,60964.0
29763.009033203125,63.0,156055.0,-53126.0,61600.0
29789.691650390625,64.0,154231.0,-52494.0,62232.0
29816.374267578125,65.0,152425.0,-51873.0,62853.0
29843.05712890625,66.0,150639.0,-51265.0,63461.0
29869.73974609375,67.0,148876.0,-50664.0,64062.0
29896.42236328125,68.0,147138.0,-50068.0,64658.0
29923.10498046875,69.0,145418.0,-49477.0,65249.0
29949.787841796875,70.0,143718.0,-48892.0,65834.0
29976.470458984375,71.0,142039.0,-48314.0,66412.0
30003.153076171875,72.0,140375.0,-47747.0,66979.0
30029.835693359375,73.0,138731.0,-47190.0,67536.0
30056.5185546875,74.0,137110.0,-46634.0,68092.0
30083.201171875,75.0,135507.0,-46084.0,68642.0
30109.8837890625,76.0,133919.0,-45544.0,69182.0
30136.56640625,77.0,132351.0,-45007.0,69719.0
30163.249267578125,78.0,130807.0,-44471.0,70255.0
30189.931884765625,79.0,129283.0,-43945.0,70781.0
30216.614501953125,80.0,127777.0,-43435.0,71291.0
30243.29736328125,81.0,126286.0,-42928.0,71798.0
30269.97998046875,82.0,124806.0,-42419.0,72307.0
30296.66259765625,83.0,123347.0,-41917.0,72809.0
30323.34521484375,84.0,121905.0,-41424.0,73302.0
30350.028076171875,85.0,120469.0,-40939.0,73787.0
30376.710693359375,86.0,119030.0,-40472.0,74254.0
30403.393310546875,87.0,117601.0,-40023.0,74703.0
30430.075927734375,88.0,116205.0,-39570.0,75156.0
30456.7587890625,89.0,114844.0,-39108.0,75618.0
30483.44140625,90.0,113505.0,-38647.0,76079.0
30510.1240234375,91.0,112179.0,-38189.0,76537.0
30536.806640625,92.0,110865.0,-37740.0,76986.0
30563.489501953125,93.0,109568.0,-37301.0,77425.0
30590.172119140625,94.0,108287.0,-36864.0,77862.0
30616.854736328125,95.0,107022.0,-36425.0,78301.0
30643.537353515625,96.0,105774.0,-35989.0,78737.0
30670.22021484375,97.0,104539.0,-35559.0,79167.0
30696.90283203125,98.0,103317.0,-35134.0,79592.0
30723.58544921875,99.0,102108.0,-34722.0,80004.0
30750.268310546875,100.0,100914.0,-34315.0,80411.0
30776.950927734375,101.0,99738.0,-33908.0,80818.0
30803.633544921875,102.0,98577.0,-33509.0,81217.0
30830.316162109375,103.0,97428.0,-33123.0,81603.0
30856.9990234375,104.0,96293.0,-32741.0,81985.0
30883.681640625,105.0,95168.0,-32349.0,82377.0
30910.3642578125,106.0,94055.0,-31956.0,82770.0
30937.046875,107.0,92955.0,-31580.0,83146.0
30963.729736328125,108.0,91867.0,-31216.0,83510.0
30990.412353515625,109.0,90792.0,-30851.0,83875.0
31017.094970703125,110.0,89733.0,-30480.0,84246.0
31043.777587890625,111.0,88687.0,-30119.0,84607.0
31070.46044921875,112.0,87643.0,-29775.0,84951.0
31097.14306640625,113.0,86591.0,-29446.0,85280.0
31123.82568359375,114.0,85542.0,-29123.0,85603.0
31150.508544921875,115.0,84518.0,-28796.0,85930.0
31177.191162109375,116.0,83527.0,-28465.0,86261.0
31203.873779296875,117.0,82552.0,-28133.0,86593.0
31230.556396484375,118.0,81587.0,-27796.0,86930.0
31257.2392578125,119.0,80633.0,-27461.0,87265.0
31283.921875,120.0,79687.0,-27138.0,87588.0
31310.6044921875,121.0,78755.0,-26824.0,87902.0
31337.287109375,122.0,77835.0,-26511.0,88215.0
31363.969970703125,123.0,76926.0,-26195.0,88531.0
31390.652587890625,124.0,76027.0,-25883.0,88843.0
31417.335205078125,125.0,75141.0,-25577.0,89149.0
31444.017822265625,126.0,74266.0,-25268.0,89458.0
31470.70068359375,127.0,73399.0,-24962.0,89764.0
31497.38330078125,128.0,72542.0,-24669.0,90057.0
31524.06591796875,129.0,71694.0,-24381.0,90345.0
31550.748779296875,130.0,70860.0,-24093.0,90633.0
31577.431396484375,131.0,70041.0,-23806.0,90920.0
31604.114013671875,132.0,69229.0,-23520.0,91206.0
31630.796630859375,133.0,68419.0,-23237.0,91489.0
31657.4794921875,134.0,67620.0,-22962.0,91764.0
31684.162109375,135.0,66831.0,-22692.0,92034.0
31710.8447265625,136.0,66052.0,-22426.0,92300.0
31737.52734375,137.0,65282.0,-22160.0,92566.0
31764.210205078125,138.0,64522.0,-21899.0,92827.0
31790.892822265625,139.0,63760.0,-21648.0,93078.0
31817.575439453125,140.0,62988.0,-21416.0,93310.0
31844.258056640625,141.0,62220.0,-21198.0,93528.0
31870.94091796875,142.0,61474.0,-20965.0,93761.0
31897.62353515625,143.0,60752.0,-20710.0,94016.0
31924.30615234375,144.0,60044.0,-20454.0,94272.0
31950.989013671875,145.0,59345.0,-20215.0,94511.0
31977.671630859375,146.0,58649.0,-19986.0,94740.0
32004.354248046875,147.0,57961.0,-19754.0,94972.0
32031.036865234375,148.0,57288.0,-19514.0,95212.0
32057.7197265625,149.0,56624.0,-19276.0,95450.0
32084.40234375,150.0,55966.0,-19048.0,95678.0
32111.0849609375,151.0,55314.0,-18822.0,95904.0
32137.767578125,152.0,54671.0,-18593.0,96133.0
32164.450439453125,153.0,54030.0,-18367.0,96359.0
32191.133056640625,154.0,53398.0,-18151.0,96575.0
32217.815673828125,155.0,52778.0,-17938.0,96788.0
32244.498291015625,156.0,52172.0,-17727.0,96999.0
32271.18115234375,157.0,51571.0,-17516.0,97210.0
32297.86376953125,158.0,50977.0,-17309.0,97417.0
32324.54638671875,159.0,50384.0,-17103.0,97623.0
32351.22900390625,160.0,49798.0,-16898.0,97828.0
32377.911865234375,161.0,49218.0,-16695.0,98031.0
32404.594482421875,162.0,48644.0,-16495.0,98231.0
32431.277099609375,163.0,48078.0,-16299.0,98427.0
32457.9599609375,164.0,47520.0,-16108.0,98618.0
32484.642578125,165.0,46957.0,-15927.0,98799.0
32511.3251953125,166.0,46385.0,-15759.0,98967.0
32538.0078125,167.0,45807.0,-15600.0,99126.0
32564.690673828125,168.0,45241.0,-15430.0,99296.0
32591.373291015625,169.0,44701.0,-15247.0,99479.0
32618.055908203125,170.0,44184.0,-15063.0,99663.0
32644.738525390625,171.0,43678.0,-14888.0,99838.0
32671.42138671875,172.0,43170.0,-14716.0,100010.0
32698.10400390625,173.0,42662.0,-14545.0,100181.0
32724.78662109375,174.0,42162.0,-14370.0,100356.0
32751.46923828125,175.0,41674.0,-14198.0,100528.0
32778.152099609375,176.0,41193.0,-14030.0,100696.0
32804.834716796875,177.0,40715.0,-13863.0,100863.0
32831.517333984375,178.0,40240.0,-13697.0,101029.0
32858.2001953125,179.0,39770.0,-13532.0,101194.0
32884.8828125,180.0,39306.0,-13372.0,101354.0
32911.5654296875,181.0,38847.0,-13216.0,101510.0
32938.248046875,182.0,38397.0,-13057.0,101669.0
32964.930908203125,183.0,37953.0,-12893.0,101833.0
32991.613525390625,184.0,37514.0,-12732.0,101994.0
33018.296142578125,185.0,37083.0,-12577.0,102149.0
33044.978759765625,186.0,36655.0,-12422.0,102304.0
33071.66162109375,187.0,36226.0,-12275.0,102451.0
33098.34423828125,188.0,35804.0,-12130.0,102596.0
33125.02685546875,189.0,35385.0,-11989.0,102737.0
33151.70947265625,190.0,34970.0,-11851.0,102875.0
33178.392333984375,191.0,34565.0,-11710.0,103016.0
33205.074951171875,192.0,34156.0,-11577.0,103149.0
33231.757568359375,193.0,33731.0,-11470.0,103256.0
33258.4404296875,194.0,33303.0,-11372.0,103354.0
33285.123046875,195.0,32894.0,-11250.0,103476.0
33311.8056640625,196.0,32507.0,-11107.0,103619.0
33338.48828125,197.0,32130.0,-10968.0,103758.0
33365.171142578125,198.0,31755.0,-10840.0,103886.0
33391.853759765625,199.0,31382.0,-10713.0,104013.0
33418.536376953125,200.0,31016.0,-10577.0,104149.0
33445.218994140625,201.0,30660.0,-10439.0,104287.0
33471.90185546875,202.0,30305.0,-10314.0,104412.0
33498.58447265625,203.0,29949.0,-10198.0,104528.0
33525.26708984375,204.0,29602.0,-10075.0,104651.0
33551.94970703125,205.0,29263.0,-9951.0,104775.0
33578.632568359375,206.0,28924.0,-9831.0,104895.0
33605.315185546875,207.0,28586.0,-9712.0,105014.0
33631.997802734375,208.0,28252.0,-9592.0,105134.0
33658.6806640625,209.0,27921.0,-9475.0,105251.0
33685.36328125,210.0,27596.0,-9361.0,105365.0
33712.0458984375,211.0,27276.0,-9253.0,105473.0
33738.728515625,212.0,26962.0,-9149.0,105577.0
33765.411376953125,213.0,26653.0,-9038.0,105688.0
33792.093994140625,214.0,26348.0,-8927.0,105799.0
33818.776611328125,215.0,26042.0,-8822.0,105904.0
33845.459228515625,216.0,25738.0,-8720.0,106006.0
33872.14208984375,217.0,25436.0,-8617.0,106109.0
33898.82470703125,218.0,25133.0,-8520.0,106206.0
33925.50732421875,219.0,24822.0,-8433.0,106293.0
33952.18994140625,220.0,24504.0,-8355.0,106371.0
33978.872802734375,221.0,24192.0,-8278.0,106448.0
34005.555419921875,222.0,23895.0,-8188.0,106538.0
34032.238037109375,223.0,23620.0,-8087.0,106639.0
34058.920654296875,224.0,23354.0,-7986.0,106740.0
34085.603515625,225.0,23086.0,-7887.0,106839.0
34112.2861328125,226.0,22815.0,-7792.0,106934.0
34138.96875,227.0,22552.0,-7698.0,107028.0
34165.651611328125,228.0,22294.0,-7612.0,107114.0
34192.334228515625,229.0,22037.0,-7528.0,107198.0
34219.016845703125,230.0,21782.0,-7440.0,107286.0
34245.699462890625,231.0,21527.0,-7345.0,107381.0
34272.38232421875,232.0,21274.0,-7250.0,107476.0
34299.06494140625,233.0,21029.0,-7166.0,107560.0
34325.74755859375,234.0,20787.0,-7087.0,107639.0
34352.43017578125,235.0,20545.0,-7001.0,107725.0
34379.113037109375,236.0,20306.0,-6912.0,107814.0
34405.795654296875,237.0,20070.0,-6832.0,107894.0
34432.478271484375,238.0,19840.0,-6752.0,107974.0
34459.160888671875,239.0,19615.0,-6665.0,108061.0
34485.84375,240.0,19389.0,-6580.0,108146.0
34512.5263671875,241.0,19163.0,-6502.0,108224.0
34539.208984375,242.0,18939.0,-6423.0,108303.0
34565.891845703125,243.0,18717.0,-6346.0,108380.0
34592.574462890625,244.0,18493.0,-6275.0,108451.0
34619.257080078125,245.0,18261.0,-6209.0,108517.0
34645.939697265625,246.0,18019.0,-6152.0,108574.0
34672.62255859375,247.0,17777.0,-6103.0,108623.0
34699.30517578125,248.0,17553.0,-6048.0,108678.0
34725.98779296875,249.0,17353.0,-5974.0,108752.0
34752.67041015625,250.0,17161.0,-5887.0,108839.0
34779.353271484375,251.0,16961.0,-5807.0,108919.0
34806.035888671875,252.0,16760.0,-5740.0,108986.0
34832.718505859375,253.0,16561.0,-5676.0,109050.0
34859.401123046875,254.0,16370.0,-5614.0,109112.0
34886.083984375,255.0,16186.0,-5547.0,109179.0
34912.7666015625,256.0,16002.0,-5474.0,109252.0
34939.44921875,257.0,15815.0,-5403.0,109323.0
34966.132080078125,258.0,15630.0,-5339.0,109387.0
34992.814697265625,259.0,15452.0,-5280.0,109446.0
35019.497314453125,260.0,15278.0,-5222.0,109504.0
35046.179931640625,261.0,15111.0,-5154.0,109572.0
35072.86279296875,262.0,14946.0,-5086.0,109640.0
35099.54541015625,263.0,14775.0,-5027.0,109699.0
35126.22802734375,264.0,14604.0,-4971.0,109755.0
35152.91064453125,265.0,14437.0,-4912.0,109814.0
35179.593505859375,266.0,14274.0,-4846.0,109880.0
35206.276123046875,267.0,14116.0,-4776.0,109950.0
35232.958740234375,268.0,13957.0,-4710.0,110016.0
35259.641357421875,269.0,13797.0,-4655.0,110071.0
35286.32421875,270.0,13631.0,-4604.0,110122.0
35313.0068359375,271.0,13453.0,-4559.0,110167.0
35339.689453125,272.0,13265.0,-4531.0,110195.0
35366.372314453125,273.0,13081.0,-4507.0,110219.0
35393.054931640625,274.0,12917.0,-4469.0,110257.0
35419.737548828125,275.0,12767.0,-4418.0,110308.0
35446.420166015625,276.0,12620.0,-4359.0,110367.0
35473.10302734375,277.0,12475.0,-4299.0,110427.0
35499.78564453125,278.0,12330.0,-4241.0,110485.0
35526.46826171875,279.0,12188.0,-4188.0,110538.0
35553.15087890625,280.0,12050.0,-4137.0,110589.0
35579.833740234375,281.0,11909.0,-4084.0,110642.0
35606.516357421875,282.0,11772.0,-4038.0,110688.0
35633.198974609375,283.0,11639.0,-3992.0,110734.0
35659.881591796875,284.0,11510.0,-3945.0,110781.0
35686.564453125,285.0,11381.0,-3897.0,110829.0
35713.2470703125,286.0,11253.0,-3844.0,110882.0
35739.9296875,287.0,11126.0,-3786.0,110940.0
35766.6123046875,288.0,10997.0,-3736.0,110990.0
35793.295166015625,289.0,10866.0,-3692.0,111034.0
35819.977783203125,290.0,10739.0,-3647.0,111079.0
35846.660400390625,291.0,10618.0,-3601.0,111125.0
35873.34326171875,292.0,10501.0,-3554.0,111172.0
35900.02587890625,293.0,10384.0,-3514.0,111212.0
35926.70849609375,294.0,10265.0,-3481.0,111245.0
35953.39111328125,295.0,10148.0,-3438.0,111288.0
35980.073974609375,296.0,10035.0,-3390.0,111336.0
36006.756591796875,297.0,9914.0,-3351.0,111375.0
36033.439208984375,298.0,9771.0,-3335.0,111391.0
36060.121826171875,299.0,9617.0,-3328.0,111398.0
36086.8046875,300.0,9482.0,-3304.0,111422.0
36113.4873046875,301.0,9371.0,-3261.0,111465.0
36140.169921875,302.0,9265.0,-3216.0,111510.0
36166.8525390625,303.0,9155.0,-3171.0,111555.0
36193.535400390625,304.0,9045.0,-3126.0,111600.0
36220.218017578125,305.0,8940.0,-3081.0,111645.0
36246.900634765625,306.0,8840.0,-3040.0,111686.0
36273.58349609375,307.0,8741.0,-3010.0,111716.0
36300.26611328125,308.0,8637.0,-2979.0,111747.0
36326.94873046875,309.0,8538.0,-2942.0,111784.0
36353.63134765625,310.0,8442.0,-2908.0,111818.0
36380.314208984375,311.0,8347.0,-2881.0,111845.0
36406.996826171875,312.0,8252.0,-2853.0,111873.0
36433.679443359375,313.0,8156.0,-2824.0,111902.0
36460.362060546875,314.0,8064.0,-2789.0,111937.0
36487.044921875,315.0,7980.0,-2750.0,111976.0
36513.7275390625,316.0,7902.0,-2710.0,112016.0
36540.41015625,317.0,7818.0,-2667.0,112059.0
36567.0927734375,318.0,7728.0,-2629.0,112097.0
36593.775634765625,319.0,7637.0,-2601.0,112125.0
36620.458251953125,320.0,7552.0,-2572.0,112154.0
36647.140869140625,321.0,7462.0,-2538.0,112188.0
36673.82373046875,322.0,7373.0,-2505.0,112221.0
36700.50634765625,323.0,7284.0,-2474.0,112252.0
36727.18896484375,324.0,7183.0,-2458.0,112268.0
36753.87158203125,325.0,7067.0,-2457.0,112269.0
36780.554443359375,326.0,6955.0,-2455.0,112271.0
36807.237060546875,327.0,6857.0,-2438.0,112288.0
36833.919677734375,328.0,6775.0,-2407.0,112319.0
36860.602294921875,329.0,6701.0,-2374.0,112352.0
36887.28515625,330.0,6625.0,-2345.0,112381.0
36913.9677734375,331.0,6548.0,-2318.0,112408.0
36940.650390625,332.0,6471.0,-2289.0,112437.0
36967.3330078125,333.0,6398.0,-2255.0,112471.0
36994.015869140625,334.0,6324.0,-2221.0,112505.0
37020.698486328125,335.0,6252.0,-2193.0,112533.0
37047.381103515625,336.0,6185.0,-2170.0,112556.0
37074.063720703125,337.0,6123.0,-2139.0,112587.0
37100.74658203125,338.0,6060.0,-2103.0,112623.0
37127.42919921875,339.0,5996.0,-2076.0,112650.0
37154.11181640625,340.0,5930.0,-2056.0,112670.0
37180.794677734375,341.0,5863.0,-2027.0,112699.0
37207.477294921875,342.0,5799.0,-1992.0,112734.0
37234.159912109375,343.0,5741.0,-1966.0,112760.0
37260.842529296875,344.0,5684.0,-1948.0,112778.0
37287.525390625,345.0,5622.0,-1922.0,112804.0
37314.2080078125,346.0,5555.0,-1888.0,112838.0
37340.890625,347.0,5492.0,-1859.0,112867.0
37367.5732421875,348.0,5436.0,-1840.0,112886.0
37394.256103515625,349.0,5376.0,-1821.0,112905.0
37420.938720703125,350.0,5312.0,-1802.0,112924.0
37447.621337890625,351.0,5239.0,-1786.0,112940.0
37474.303955078125,352.0,5149.0,-1783.0,112943.0
37500.98681640625,353.0,5056.0,-1784.0,112942.0
37527.66943359375,354.0,4983.0,-1773.0,112953.0
37554.35205078125,355.0,4928.0,-1755.0,112971.0
37581.034912109375,356.0,4877.0,-1736.0,112990.0
37607.717529296875,357.0,4824.0,-1719.0,113007.0
37634.400146484375,358.0,4767.0,-1697.0,113029.0
37661.082763671875,359.0,4712.0,-1675.0,113051.0
37687.765625,360.0,4663.0,-1658.0,113068.0
37714.4482421875,361.0,4613.0,-1639.0,113087.0
37741.130859375,362.0,4562.0,-1612.0,113114.0
37767.8134765625,363.0,4511.0,-1578.0,113148.0
37794.496337890625,364.0,4461.0,-1548.0,113178.0
37821.178955078125,365.0,4412.0,-1527.0,113199.0
37847.861572265625,366.0,4363.0,-1512.0,113214.0
37874.544189453125,367.0,4317.0,-1499.0,113227.0
37901.22705078125,368.0,4270.0,-1480.0,113246.0
37927.90966796875,369.0,4222.0,-1461.0,113265.0
37954.59228515625,370.0,4179.0,-1444.0,113282.0
37981.275146484375,371.0,4138.0,-1427.0,113299.0
38007.957763671875,372.0,4095.0,-1405.0,113321.0
38034.640380859375,373.0,4049.0,-1381.0,113345.0
38061.322998046875,374.0,4002.0,-1361.0,113365.0
38088.005859375,375.0,3955.0,-1339.0,113387.0
38114.6884765625,376.0,3915.0,-1320.0,113406.0
38141.37109375,377.0,3871.0,-1307.0,113419.0
38168.0537109375,378.0,3806.0,-1302.0,113424.0
38194.736572265625,379.0,3729.0,-1304.0,113422.0
38221.419189453125,380.0,3664.0,-1307.0,113419.0
38248.101806640625,381.0,3613.0,-1304.0,113422.0
38274.784423828125,382.0,3570.0,-1293.0,113433.0
38301.46728515625,383.0,3531.0,-1273.0,113453.0
38328.14990234375,384.0,3489.0,-1252.0,113474.0
38354.83251953125,385.0,3445.0,-1237.0,113489.0
38381.515380859375,386.0,3411.0,-1221.0,113505.0
38408.197998046875,387.0,3380.0,-1197.0,113529.0
38434.880615234375,388.0,3346.0,-1172.0,113554.0
38461.563232421875,389.0,3313.0,-1156.0,113570.0
38488.24609375,390.0,3279.0,-1144.0,113582.0
38514.9287109375,391.0,3246.0,-1131.0,113595.0
38541.611328125,392.0,3216.0,-1117.0,113609.0
38568.2939453125,393.0,3184.0,-1097.0,113629.0
38594.976806640625,394.0,3147.0,-1073.0,113653.0
38621.659423828125,395.0,3112.0,-1056.0,113670.0
38648.342041015625,396.0,3081.0,-1048.0,113678.0
38675.024658203125,397.0,3052.0,-1041.0,113685.0
38701.70751953125,398.0,3022.0,-1027.0,113699.0
38728.39013671875,399.0,2993.0,-1016.0,113710.0
38755.07275390625,400.0,2963.0,-1011.0,113715.0
38781.75537109375,401.0,2932.0,-997.0,113729.0
38808.438232421875,402.0,2900.0,-974.0,113752.0
38835.120849609375,403.0,2866.0,-956.0,113770.0
38861.803466796875,404.0,2822.0,-951.0,113775.0
38888.486328125,405.0,2761.0,-956.0,113770.0
38915.1689453125,406.0,2693.0,-968.0,113758.0
38941.8515625,407.0,2639.0,-975.0,113751.0
38968.5341796875,408.0,2609.0,-969.0,113757.0
38995.217041015625,409.0,2589.0,-956.0,113770.0
39021.899658203125,410.0,2562.0,-946.0,113780.0
39048.582275390625,411.0,2530.0,-935.0,113791.0
39075.264892578125,412.0,2499.0,-921.0,113805.0
39101.94775390625,413.0,2470.0,-910.0,113816.0
39128.63037109375,414.0,2446.0,-896.0,113830.0
39155.31298828125,415.0,2423.0,-871.0,113855.0
39181.99560546875,416.0,2398.0,-850.0,113876.0
39208.678466796875,417.0,2374.0,-845.0,113881.0
39235.361083984375,418.0,2353.0,-842.0,113884.0
39262.043701171875,419.0,2328.0,-833.0,113893.0
39288.7265625,420.0,2305.0,-820.0,113906.0
39315.4091796875,421.0,2285.0,-805.0,113921.0
39342.091796875,422.0,2266.0,-786.0,113940.0
39368.7744140625,423.0,2245.0,-765.0,113961.0
39395.457275390625,424.0,2220.0,-747.0,113979.0
39422.139892578125,425.0,2195.0,-733.0,113993.0
39448.822509765625,426.0,2174.0,-724.0,114002.0
39475.505126953125,427.0,2154.0,-712.0,114014.0
39502.18798828125,428.0,2130.0,-701.0,114025.0
39528.87060546875,429.0,2105.0,-694.0,114032.0
39555.55322265625,430.0,2079.0,-690.0,114036.0
39582.23583984375,431.0,2053.0,-688.0,114038.0
39608.918701171875,432.0,2015.0,-698.0,114028.0
39635.601318359375,433.0,1964.0,-714.0,114012.0
39662.283935546875,434.0,1916.0,-727.0,113999.0
39688.966796875,435.0,1882.0,-730.0,113996.0
39715.6494140625,436.0,1859.0,-720.0,114006.0
39742.33203125,437.0,1842.0,-702.0,114024.0
39769.0146484375,438.0,1819.0,-691.0,114035.0
39795.697509765625,439.0,1795.0,-684.0,114042.0
39822.380126953125,440.0,1780.0,-671.0,114055.0
39849.062744140625,441.0,1768.0,-658.0,114068.0
39875.745361328125,442.0,1742.0,-652.0,114074.0
39902.42822265625,443.0,1714.0,-650.0,114076.0
39929.11083984375,444.0,1695.0,-641.0,114085.0
39955.79345703125,445.0,1680.0,-624.0,114102.0
39982.47607421875,446.0,1664.0,-605.0,114121.0
40009.158935546875,447.0,1648.0,-592.0,114134.0
40035.841552734375,448.0,1631.0,-587.0,114139.0
40062.524169921875,449.0,1618.0,-580.0,114146.0
40089.20703125,450.0,1608.0,-570.0,114156.0
40115.8896484375,451.0,1596.0,-560.0,114166.0
40142.572265625,452.0,1583.0,-547.0,114179.0
40169.2548828125,453.0,1566.0,-536.0,114190.0
40195.937744140625,454.0,1550.0,-526.0,114200.0
40222.620361328125,455.0,1537.0,-521.0,114205.0
40249.302978515625,456.0,1529.0,-517.0,114209.0
40275.985595703125,457.0,1515.0,-513.0,114213.0
40302.66845703125,458.0,1485.0,-515.0,114211.0
40329.35107421875,459.0,1440.0,-529.0,114197.0
40356.03369140625,460.0,1391.0,-547.0,114179.0
40382.71630859375,461.0,1361.0,-556.0,114170.0
40409.399169921875,462.0,1349.0,-555.0,114171.0
40436.081787109375,463.0,1340.0,-541.0,114185.0
40462.764404296875,464.0,1323.0,-525.0,114201.0
40489.447021484375,465.0,1304.0,-513.0,114213.0
40516.1298828125,466.0,1287.0,-502.0,114224.0
40542.8125,467.0,1276.0,-488.0,114238.0
40569.4951171875,468.0,1267.0,-476.0,114250.0
40596.177978515625,469.0,1255.0,-469.0,114257.0
40622.860595703125,470.0,1242.0,-465.0,114261.0
40649.543212890625,471.0,1229.0,-463.0,114263.0
40676.225830078125,472.0,1219.0,-451.0,114275.0
40702.90869140625,473.0,1211.0,-432.0,114294.0
40729.59130859375,474.0,1202.0,-418.0,114308.0
40756.27392578125,475.0,1195.0,-409.0,114317.0
40782.95654296875,476.0,1188.0,-399.0,114327.0
40809.639404296875,477.0,1180.0,-387.0,114339.0
40836.322021484375,478.0,1172.0,-380.0,114346.0
40863.004638671875,479.0,1162.0,-375.0,114351.0
40889.687255859375,480.0,1146.0,-371.0,114355.0
40916.3701171875,481.0,1132.0,-364.0,114362.0
40943.052734375,482.0,1124.0,-353.0,114373.0
40969.7353515625,483.0,1118.0,-352.0,114374.0
40996.418212890625,484.0,1094.0,-361.0,114365.0
41023.100830078125,485.0,1049.0,-375.0,114351.0
41049.783447265625,486.0,1003.0,-392.0,114334.0
41076.466064453125,487.0,977.0,-403.0,114323.0
41103.14892578125,488.0,968.0,-399.0,114327.0
41129.83154296875,489.0,961.0,-386.0,114340.0
41156.51416015625,490.0,955.0,-376.0,114350.0
41183.19677734375,491.0,949.0,-372.0,114354.0
41209.879638671875,492.0,938.0,-369.0,114357.0
41236.562255859375,493.0,927.0,-365.0,114361.0
41263.244873046875,494.0,920.0,-355.0,114371.0
41289.927490234375,495.0,917.0,-344.0,114382.0
41316.6103515625,496.0,914.0,-339.0,114387.0
41343.29296875,497.0,909.0,-334.0,114392.0
41369.9755859375,498.0,903.0,-325.0,114401.0
41396.658447265625,499.0,896.0,-318.0,114408.0
41423.341064453125,500.0,891.0,-320.0,114406.0
41450.023681640625,501.0,886.0,-318.0,114408.0
41476.706298828125,502.0,881.0,-308.0,114418.0
41503.38916015625,503.0,878.0,-292.0,114434.0
41530.07177734375,504.0,879.0,-277.0,114449.0
41556.75439453125,505.0,873.0,-266.0,114460.0
41583.43701171875,506.0,860.0,-256.0,114470.0
41610.119873046875,507.0,848.0,-249.0,114477.0
41636.802490234375,508.0,842.0,-252.0,114474.0
41663.485107421875,509.0,834.0,-254.0,114472.0
41690.167724609375,510.0,822.0,-250.0,114476.0
41716.8505859375,511.0,799.0,-250.0,114476.0
41743.533203125,512.0,762.0,-269.0,114457.0
41770.2158203125,513.0,724.0,-294.0,114432.0
41796.898681640625,514.0,701.0,-306.0,114420.0
41823.581298828125,515.0,693.0,-304.0,114422.0
41850.263916015625,516.0,689.0,-296.0,114430.0
41876.946533203125,517.0,682.0,-285.0,114441.0
41903.62939453125,518.0,670.0,-279.0,114447.0
41930.31201171875,519.0,659.0,-271.0,114455.0
41956.99462890625,520.0,657.0,-269.0,114457.0
41983.67724609375,521.0,661.0,-269.0,114457.0
42010.360107421875,522.0,657.0,-268.0,114458.0
42037.042724609375,523.0,644.0,-267.0,114459.0
42063.725341796875,524.0,633.0,-266.0,114460.0
42090.407958984375,525.0,630.0,-260.0,114466.0
42117.0908203125,526.0,632.0,-250.0,114476.0
42143.7734375,527.0,631.0,-242.0,114484.0
42170.4560546875,528.0,632.0,-238.0,114488.0
42197.138671875,529.0,632.0,-236.0,114490.0
42223.821533203125,530.0,629.0,-232.0,114494.0
42250.504150390625,531.0,625.0,-225.0,114501.0
42277.186767578125,532.0,621.0,-219.0,114507.0
42303.86962890625,533.0,617.0,-214.0,114512.0
42330.55224609375,534.0,615.0,-210.0,114516.0
42357.23486328125,535.0,612.0,-200.0,114526.0
42383.91748046875,536.0,610.0,-194.0,114532.0
42410.600341796875,537.0,604.0,-195.0,114531.0
42437.282958984375,538.0,589.0,-200.0,114526.0
42463.965576171875,539.0,558.0,-214.0,114512.0
42490.648193359375,540.0,517.0,-233.0,114493.0
42517.3310546875,541.0,488.0,-248.0,114478.0
42544.013671875,542.0,474.0,-248.0,114478.0
42570.6962890625,543.0,469.0,-243.0,114483.0
42597.37890625,544.0,469.0,-240.0,114486.0
42624.061767578125,545.0,465.0,-238.0,114488.0
42650.744384765625,546.0,458.0,-238.0,114488.0
42677.427001953125,547.0,459.0,-236.0,114490.0
42704.10986328125,548.0,460.0,-227.0,114499.0
42730.79248046875,549.0,455.0,-222.0,114504.0
42757.47509765625,550.0,450.0,-219.0,114507.0
42784.15771484375,551.0,448.0,-212.0,114514.0
42810.840576171875,552.0,445.0,-212.0,114514.0
42837.523193359375,553.0,444.0,-210.0,114516.0
42864.205810546875,554.0,442.0,-203.0,114523.0
42890.888427734375,555.0,442.0,-194.0,114532.0
42917.5712890625,556.0,441.0,-188.0,114538.0
42944.25390625,557.0,439.0,-180.0,114546.0
42970.9365234375,558.0,441.0,-170.0,114556.0
42997.619140625,559.0,443.0,-162.0,114564.0
43024.302001953125,560.0,437.0,-158.0,114568.0
43050.984619140625,561.0,429.0,-158.0,114568.0
43077.667236328125,562.0,427.0,-161.0,114565.0
43104.35009765625,563.0,427.0,-158.0,114568.0
43131.03271484375,564.0,418.0,-154.0,114572.0
43157.71533203125,565.0,402.0,-163.0,114563.0
43184.39794921875,566.0,375.0,-183.0,114543.0
43211.080810546875,567.0,345.0,-200.0,114526.0
43237.763427734375,568.0,325.0,-210.0,114516.0
43264.446044921875,569.0,318.0,-207.0,114519.0
43291.128662109375,570.0,317.0,-194.0,114532.0
43317.8115234375,571.0,317.0,-186.0,114540.0
43344.494140625,572.0,312.0,-182.0,114544.0
43371.1767578125,573.0,308.0,-181.0,114545.0
43397.859375,574.0,310.0,-176.0,114550.0
43424.542236328125,575.0,312.0,-162.0,114564.0
43451.224853515625,576.0,312.0,-148.0,114578.0
43477.907470703125,577.0,315.0,-146.0,114580.0
43504.59033203125,578.0,315.0,-149.0,114577.0
43531.27294921875,579.0,311.0,-148.0,114578.0
43557.95556640625,580.0,308.0,-142.0,114584.0
43584.63818359375,581.0,308.0,-138.0,114588.0
43611.321044921875,582.0,310.0,-134.0,114592.0
43638.003662109375,583.0,316.0,-135.0,114591.0
43664.686279296875,584.0,320.0,-141.0,114585.0
43691.368896484375,585.0,321.0,-139.0,114587.0
43718.0517578125,586.0,323.0,-128.0,114598.0
43744.734375,587.0,321.0,-124.0,114602.0
43771.4169921875,588.0,321.0,-124.0,114602.0
43798.099609375,589.0,323.0,-117.0,114609.0
43824.782470703125,590.0,322.0,-109.0,114617.0
43851.465087890625,591.0,315.0,-106.0,114620.0
43878.147705078125,592.0,295.0,-108.0,114618.0
43904.830322265625,593.0,261.0,-122.0,114604.0
43931.51318359375,594.0,232.0,-141.0,114585.0
43958.19580078125,595.0,219.0,-152.0,114574.0
43984.87841796875,596.0,218.0,-154.0,114572.0
44011.561279296875,597.0,217.0,-155.0,114571.0
44038.243896484375,598.0,211.0,-159.0,114567.0
44064.926513671875,599.0,208.0,-156.0,114570.0
44091.609130859375,600.0,209.0,-147.0,114579.0
44118.2919921875,601.0,211.0,-139.0,114587.0
44144.974609375,602.0,212.0,-135.0,114591.0
44171.6572265625,603.0,217.0,-133.0,114593.0
44198.33984375,604.0,218.0,-127.0,114599.0
44225.022705078125,605.0,215.0,-119.0,114607.0
44251.705322265625,606.0,217.0,-117.0,114609.0
44278.387939453125,607.0,226.0,-114.0,114612.0
44305.070556640625,608.0,232.0,-109.0,114617.0
44331.75341796875,609.0,233.0,-101.0,114625.0
44358.43603515625,610.0,235.0,-95.0,114631.0
44385.11865234375,611.0,238.0,-92.0,114634.0
44411.801513671875,612.0,244.0,-89.0,114637.0
44438.484130859375,613.0,245.0,-86.0,114640.0
44465.166748046875,614.0,241.0,-81.0,114645.0
44491.849365234375,615.0,242.0,-74.0,114652.0
44518.5322265625,616.0,247.0,-68.0,114658.0
44545.21484375,617.0,245.0,-67.0,114659.0
44571.8974609375,618.0,238.0,-70.0,114656.0
44598.580078125,619.0,221.0,-79.0,114647.0
44625.262939453125,620.0,191.0,-98.0,114628.0
44651.945556640625,621.0,158.0,-119.0,114607.0
44678.628173828125,622.0,141.0,-129.0,114597.0
44705.310791015625,623.0,139.0,-131.0,114595.0
44731.99365234375,624.0,141.0,-127.0,114599.0
44758.67626953125,625.0,143.0,-119.0,114607.0
44785.35888671875,626.0,141.0,-111.0,114615.0
44812.041748046875,627.0,141.0,-105.0,114621.0
44838.724365234375,628.0,147.0,-98.0,114628.0
44865.406982421875,629.0,155.0,-96.0,114630.0
44892.089599609375,630.0,158.0,-100.0,114626.0
44918.7724609375,631.0,152.0,-99.0,114627.0
44945.455078125,632.0,144.0,-95.0,114631.0
44972.1376953125,633.0,143.0,-91.0,114635.0
44998.8203125,634.0,150.0,-87.0,114639.0
45025.503173828125,635.0,156.0,-82.0,114644.0
45052.185791015625,636.0,160.0,-80.0,114646.0
45078.868408203125,637.0,161.0,-80.0,114646.0
45105.551025390625,638.0,164.0,-77.0,114649.0
45132.23388671875,639.0,169.0,-67.0,114659.0
45158.91650390625,640.0,171.0,-54.0,114672.0
45185.59912109375,641.0,171.0,-52.0,114674.0
45212.28173828125,642.0,171.0,-56.0,114670.0
45238.964599609375,643.0,173.0,-56.0,114670.0
45265.647216796875,644.0,174.0,-48.0,114678.0
45292.329833984375,645.0,173.0,-44.0,114682.0
45319.0126953125,646.0,165.0,-56.0,114670.0
45345.6953125,647.0,144.0,-80.0,114646.0
45372.3779296875,648.0,116.0,-97.0,114629.0
45399.060546875,649.0,101.0,-98.0,114628.0
45425.743408203125,650.0,105.0,-96.0,114630.0
45452.426025390625,651.0,110.0,-96.0,114630.0
45479.108642578125,652.0,108.0,-96.0,114630.0
45505.791259765625,653.0,105.0,-100.0,114626.0
45532.47412109375,654.0,107.0,-101.0,114625.0
45559.15673828125,655.0,110.0,-98.0,114628.0
45585.83935546875,656.0,108.0,-90.0,114636.0
45612.52197265625,657.0,105.0,-78.0,114648.0
45639.204833984375,658.0,110.0,-68.0,114658.0
45665.887451171875,659.0,118.0,-61.0,114665.0
45692.570068359375,660.0,117.0,-55.0,114671.0
45719.2529296875,661.0,117.0,-49.0,114677.0
45745.935546875,662.0,122.0,-46.0,114680.0
45772.6181640625,663.0,129.0,-48.0,114678.0
45799.30078125,664.0,132.0,-46.0,114680.0
45825.983642578125,665.0,136.0,-40.0,114686.0
45852.666259765625,666.0,142.0,-34.0,114692.0
45879.348876953125,667.0,150.0,-33.0,114693.0
45906.031494140625,668.0,153.0,-30.0,114696.0
45932.71435546875,669.0,153.0,-25.0,114701.0
45959.39697265625,670.0,151.0,-28.0,114698.0
45986.07958984375,671.0,150.0,-33.0,114693.0
46012.76220703125,672.0,144.0,-38.0,114688.0
46039.445068359375,673.0,124.0,-51.0,114675.0
46066.127685546875,674.0,90.0,-74.0,114652.0
46092.810302734375,675.0,64.0,-89.0,114637.0
46119.4931640625,676.0,61.0,-92.0,114634.0
46146.17578125,677.0,65.0,-91.0,114635.0
46172.8583984375,678.0,66.0,-88.0,114638.0
46199.541015625,679.0,64.0,-82.0,114644.0
46226.223876953125,680.0,63.0,-76.0,114650.0
46252.906494140625,681.0,68.0,-67.0,114659.0
46279.589111328125,682.0,77.0,-57.0,114669.0
46306.271728515625,683.0,80.0,-55.0,114671.0
46332.95458984375,684.0,76.0,-53.0,114673.0
46359.63720703125,685.0,77.0,-47.0,114679.0
46386.31982421875,686.0,83.0,-46.0,114680.0
46413.00244140625,687.0,87.0,-52.0,114674.0
46439.685302734375,688.0,90.0,-59.0,114667.0
46466.367919921875,689.0,95.0,-58.0,114668.0
46493.050537109375,690.0,100.0,-47.0,114679.0
46519.7333984375,691.0,102.0,-39.0,114687.0
46546.416015625,692.0,104.0,-35.0,114691.0
46573.0986328125,693.0,111.0,-35.0,114691.0
46599.78125,694.0,118.0,-32.0,114694.0
46626.464111328125,695.0,122.0,-30.0,114696.0
46653.146728515625,696.0,125.0,-26.0,114700.0
46679.829345703125,697.0,126.0,-18.0,114708.0
46706.511962890625,698.0,121.0,-15.0,114711.0
46733.19482421875,699.0,103.0,-28.0,114698.0
46759.87744140625,700.0,71.0,-55.0,114671.0
46786.56005859375,701.0,42.0,-81.0,114645.0
46813.24267578125,702.0,30.0,-95.0,114631.0
46839.925537109375,703.0,33.0,-95.0,114631.0
46866.608154296875,704.0,37.0,-87.0,114639.0
46893.290771484375,705.0,37.0,-81.0,114645.0
46919.973388671875,706.0,35.0,-78.0,114648.0
46946.65625,707.0,34.0,-75.0,114651.0
46973.3388671875,708.0,40.0,-71.0,114655.0
47000.021484375,709.0,49.0,-63.0,114663.0
47026.704345703125,710.0,55.0,-52.0,114674.0
47053.386962890625,711.0,58.0,-41.0,114685.0
47080.069580078125,712.0,62.0,-33.0,114693.0
47106.752197265625,713.0,70.0,-31.0,114695.0
47133.43505859375,714.0,74.0,-29.0,114697.0
47160.11767578125,715.0,76.0,-28.0,114698.0
47186.80029296875,716.0,83.0,-25.0,114701.0
47213.48291015625,717.0,87.0,-18.0,114708.0
47240.165771484375,718.0,84.0,-10.0,114716.0
47266.848388671875,719.0,82.0,-5.0,114721.0
47293.531005859375,720.0,87.0,-2.0,114724.0
47320.213623046875,721.0,94.0,2.0,114728.0
47346.896484375,722.0,97.0,4.0,114730.0
47373.5791015625,723.0,98.0,5.0,114731.0
47400.26171875,724.0,101.0,4.0,114730.0
47426.944580078125,725.0,99.0,1.0,114727.0
47453.627197265625,726.0,78.0,-12.0,114714.0
47480.309814453125,727.0,44.0,-36.0,114690.0
47506.992431640625,728.0,17.0,-59.0,114667.0
47533.67529296875,729.0,9.0,-64.0,114662.0
47560.35791015625,730.0,10.0,-53.0,114673.0
47587.04052734375,731.0,13.0,-45.0,114681.0
47613.72314453125,732.0,14.0,-51.0,114675.0
47640.406005859375,733.0,14.0,-54.0,114672.0
47667.088623046875,734.0,18.0,-47.0,114679.0
47693.771240234375,735.0,26.0,-37.0,114689.0
47720.453857421875,736.0,31.0,-37.0,114689.0
47747.13671875,737.0,27.0,-40.0,114686.0
47773.8193359375,738.0,27.0,-42.0,114684.0
47800.501953125,739.0,35.0,-39.0,114687.0
47827.184814453125,740.0,44.0,-33.0,114693.0
47853.867431640625,741.0,46.0,-24.0,114702.0
47880.550048828125,742.0,44.0,-16.0,114710.0
47907.232666015625,743.0,48.0,-9.0,114717.0
47933.91552734375,744.0,56.0,0.0,114726.0
47960.59814453125,745.0,61.0,7.0,114733.0
47987.28076171875,746.0,63.0,10.0,114736.0
48013.96337890625,747.0,68.0,10.0,114736.0
48040.646240234375,748.0,75.0,10.0,114736.0
48067.328857421875,749.0,78.0,13.0,114739.0
48094.011474609375,750.0,80.0,15.0,114741.0
48120.694091796875,751.0,81.0,14.0,114740.0
48147.376953125,752.0,76.0,9.0,114735.0
48174.0595703125,753.0,54.0,-10.0,114716.0
48200.7421875,754.0,22.0,-36.0,114690.0
48227.425048828125,755.0,0.0,-55.0,114671.0
48254.107666015625,756.0,-1.0,-57.0,114669.0
48280.790283203125,757.0,9.0,-50.0,114676.0
48307.472900390625,758.0,16.0,-46.0,114680.0
48334.15576171875,759.0,11.0,-44.0,114682.0
48360.83837890625,760.0,7.0,-38.0,114688.0
48387.52099609375,761.0,9.0,-35.0,114691.0
48414.20361328125,762.0,18.0,-31.0,114695.0
48440.886474609375,763.0,27.0,-26.0,114700.0
48467.569091796875,764.0,31.0,-23.0,114703.0
48494.251708984375,765.0,33.0,-19.0,114707.0
48520.934326171875,766.0,39.0,-17.0,114709.0
48547.6171875,767.0,45.0,-17.0,114709.0
48574.2998046875,768.0,48.0,-17.0,114709.0
48600.982421875,769.0,53.0,-17.0,114709.0
48627.6650390625,770.0,55.0,-11.0,114715.0
48654.347900390625,771.0,57.0,-4.0,114722.0
48681.030517578125,772.0,62.0,1.0,114727.0
48707.713134765625,773.0,69.0,11.0,114737.0
48734.39599609375,774.0,74.0,22.0,114748.0
48761.07861328125,775.0,76.0,18.0,114744.0
48787.76123046875,776.0,74.0,7.0,114733.0
48814.44384765625,777.0,72.0,3.0,114729.0
48841.126708984375,778.0,70.0,6.0,114732.0
48867.809326171875,779.0,61.0,8.0,114734.0
48894.491943359375,780.0,41.0,6.0,114732.0
48921.174560546875,781.0,11.0,-3.0,114723.0
48947.857421875,782.0,-13.0,-17.0,114709.0
48974.5400390625,783.0,-19.0,-28.0,114698.0
49001.22265625,784.0,-15.0,-31.0,114695.0
49027.9052734375,785.0,-11.0,-27.0,114699.0
49054.588134765625,786.0,-13.0,-20.0,114706.0
49081.270751953125,787.0,-15.0,-19.0,114707.0
49107.953369140625,788.0,-11.0,-20.0,114706.0
49134.63623046875,789.0,-2.0,-18.0,114708.0
49161.31884765625,790.0,3.0,-15.0,114711.0
49188.00146484375,791.0,4.0,-19.0,114707.0
49214.68408203125,792.0,5.0,-23.0,114703.0
49241.366943359375,793.0,5.0,-18.0,114708.0
49268.049560546875,794.0,6.0,-11.0,114715.0
49294.732177734375,795.0,13.0,-1.0,114725.0
49321.414794921875,796.0,20.0,6.0,114732.0
49348.09765625,797.0,28.0,7.0,114733.0
49374.7802734375,798.0,35.0,9.0,114735.0
49401.462890625,799.0,38.0,8.0,114734.0
49428.1455078125,800.0,39.0,5.0,114731.0
49454.828369140625,801.0,40.0,2.0,114728.0
49481.510986328125,802.0,40.0,-1.0,114725.0
49508.193603515625,803.0,45.0,1.0,114727.0
49534.87646484375,804.0,52.0,12.0,114738.0
49561.55908203125,805.0,53.0,18.0,114744.0
49588.24169921875,806.0,39.0,6.0,114732.0
49614.92431640625,807.0,17.0,-19.0,114707.0
49641.607177734375,808.0,-10.0,-39.0,114687.0
49668.289794921875,809.0,-27.0,-51.0,114675.0
49694.972412109375,810.0,-25.0,-56.0,114670.0
49721.655029296875,811.0,-20.0,-55.0,114671.0
49748.337890625,812.0,-21.0,-49.0,114677.0
49775.0205078125,813.0,-23.0,-47.0,114679.0
49801.703125,814.0,-19.0,-47.0,114679.0
49828.3857421875,815.0,-13.0,-46.0,114680.0
49855.068603515625,816.0,-5.0,-45.0,114681.0
49881.751220703125,817.0,-2.0,-41.0,114685.0
49908.433837890625,818.0,-1.0,-36.0,114690.0
49935.11669921875,819.0,6.0,-29.0,114697.0
49961.79931640625,820.0,12.0,-23.0,114703.0
49988.48193359375,821.0,13.0,-17.0,114709.0
50015.16455078125,822.0,17.0,-9.0,114717.0
50041.847412109375,823.0,24.0,-2.0,114724.0
50068.530029296875,824.0,30.0,1.0,114727.0
50095.212646484375,825.0,38.0,-2.0,114724.0
50121.895263671875,826.0,40.0,-6.0,114720.0
50148.578125,827.0,41.0,-6.0,114720.0
50175.2607421875,828.0,47.0,0.0,114726.0
50201.943359375,829.0,55.0,2.0,114728.0
50228.6259765625,830.0,63.0,4.0,114730.0
50255.308837890625,831.0,63.0,14.0,114740.0
50281.991455078125,832.0,51.0,18.0,114744.0
50308.674072265625,833.0,25.0,0.0,114726.0
50335.356689453125,834.0,-5.0,-29.0,114697.0
50362.03955078125,835.0,-26.0,-46.0,114680.0
50388.72216796875,836.0,-25.0,-43.0,114683.0
50415.40478515625,837.0,-12.0,-31.0,114695.0
50442.087646484375,838.0,-4.0,-30.0,114696.0
50468.770263671875,839.0,-8.0,-34.0,114692.0
50495.452880859375,840.0,-14.0,-36.0,114690.0
50522.135498046875,841.0,-14.0,-38.0,114688.0
50548.818359375,842.0,-7.0,-36.0,114690.0
50575.5009765625,843.0,2.0,-33.0,114693.0
50602.18359375,844.0,7.0,-30.0,114696.0
50628.8662109375,845.0,8.0,-26.0,114700.0
50655.549072265625,846.0,9.0,-17.0,114709.0
50682.231689453125,847.0,15.0,-11.0,114715.0
50708.914306640625,848.0,25.0,-8.0,114718.0
50735.596923828125,849.0,31.0,-4.0,114722.0
50762.27978515625,850.0,33.0,-1.0,114725.0
50788.96240234375,851.0,36.0,-1.0,114725.0
50815.64501953125,852.0,41.0,7.0,114733.0
50842.327880859375,853.0,44.0,20.0,114746.0
50869.010498046875,854.0,43.0,24.0,114750.0
50895.693115234375,855.0,44.0,24.0,114750.0
50922.375732421875,856.0,51.0,25.0,114751.0
50949.05859375,857.0,57.0,21.0,114747.0
50975.7412109375,858.0,56.0,16.0,114742.0
51002.423828125,859.0,49.0,17.0,114743.0
51029.1064453125,860.0,29.0,11.0,114737.0
51055.789306640625,861.0,-5.0,-20.0,114706.0
51082.471923828125,862.0,-36.0,-47.0,114679.0
51109.154541015625,863.0,-43.0,-47.0,114679.0
51135.837158203125,864.0,-30.0,-40.0,114686.0
51162.52001953125,865.0,-22.0,-34.0,114692.0
51189.20263671875,866.0,-24.0,-28.0,114698.0
51215.88525390625,867.0,-25.0,-25.0,114701.0
51242.568115234375,868.0,-20.0,-24.0,114702.0
51269.250732421875,869.0,-10.0,-24.0,114702.0
51295.933349609375,870.0,-5.0,-20.0,114706.0
51322.615966796875,871.0,-6.0,-17.0,114709.0
51349.298828125,872.0,-7.0,-18.0,114708.0
51375.9814453125,873.0,-7.0,-17.0,114709.0
51402.6640625,874.0,-6.0,-17.0,114709.0
51429.3466796875,875.0,-2.0,-18.0,114708.0
51456.029541015625,876.0,5.0,-13.0,114713.0
51482.712158203125,877.0,10.0,-3.0,114723.0
51509.394775390625,878.0,13.0,1.0,114727.0
51536.077392578125,879.0,16.0,-3.0,114723.0
51562.76025390625,880.0,19.0,-8.0,114718.0
51589.44287109375,881.0,22.0,-8.0,114718.0
51616.12548828125,882.0,25.0,-2.0,114724.0
51642.80810546875,883.0,30.0,3.0,114729.0
51669.490966796875,884.0,33.0,9.0,114735.0
51696.173583984375,885.0,36.0,18.0,114744.0
51722.856201171875,886.0,30.0,21.0,114747.0
51749.5390625,887.0,7.0,2.0,114728.0
51776.2216796875,888.0,-24.0,-30.0,114696.0
51802.904296875,889.0,-44.0,-40.0,114686.0
51829.5869140625,890.0,-45.0,-35.0,114691.0
51856.269775390625,891.0,-40.0,-36.0,114690.0
51882.952392578125,892.0,-36.0,-43.0,114683.0
51909.635009765625,893.0,-36.0,-44.0,114682.0
51936.317626953125,894.0,-34.0,-44.0,114682.0
51963.00048828125,895.0,-31.0,-39.0,114687.0
51989.68310546875,896.0,-29.0,-33.0,114693.0
52016.36572265625,897.0,-24.0,-29.0,114697.0
52043.04833984375,898.0,-20.0,-26.0,114700.0
52069.731201171875,899.0,-18.0,-25.0,114701.0
52096.413818359375,900.0,-19.0,-22.0,114704.0
52123.096435546875,901.0,-19.0,-22.0,114704.0
52149.779296875,902.0,-13.0,-21.0,114705.0
52176.4619140625,903.0,-2.0,-11.0,114715.0
52203.14453125,904.0,8.0,3.0,114729.0
52229.8271484375,905.0,15.0,10.0,114736.0
52256.510009765625,906.0,16.0,9.0,114735.0
52283.192626953125,907.0,15.0,9.0,114735.0
52309.875244140625,908.0,14.0,10.0,114736.0
52336.557861328125,909.0,13.0,8.0,114734.0
52363.24072265625,910.0,17.0,7.0,114733.0
52389.92333984375,911.0,21.0,9.0,114735.0
52416.60595703125,912.0,20.0,10.0,114736.0
52443.28857421875,913.0,3.0,-1.0,114725.0
52469.971435546875,914.0,-23.0,-25.0,114701.0
52496.654052734375,915.0,-42.0,-44.0,114682.0
52523.336669921875,916.0,-47.0,-48.0,114678.0
52550.01953125,917.0,-43.0,-42.0,114684.0
52576.7021484375,918.0,-45.0,-34.0,114692.0
52603.384765625,919.0,-48.0,-32.0,114694.0
52630.0673828125,920.0,-48.0,-40.0,114686.0
52656.750244140625,921.0,-41.0,-46.0,114680.0
52683.432861328125,922.0,-32.0,-41.0,114685.0
52710.115478515625,923.0,-27.0,-29.0,114697.0
52736.798095703125,924.0,-22.0,-22.0,114704.0
52763.48095703125,925.0,-20.0,-19.0,114707.0
52790.16357421875,926.0,-20.0,-17.0,114709.0
52816.84619140625,927.0,-19.0,-17.0,114709.0
52843.52880859375,928.0,-13.0,-17.0,114709.0
52870.211669921875,929.0,-5.0,-14.0,114712.0
52896.894287109375,930.0,0.0,-7.0,114719.0
52923.576904296875,931.0,2.0,-1.0,114725.0
52950.259765625,932.0,9.0,-1.0,114725.0
52976.9423828125,933.0,18.0,-5.0,114721.0
53003.625,934.0,25.0,-4.0,114722.0
53030.3076171875,935.0,27.0,3.0,114729.0
53056.990478515625,936.0,26.0,11.0,114737.0
53083.673095703125,937.0,26.0,16.0,114742.0
53110.355712890625,938.0,25.0,12.0,114738.0
53137.038330078125,939.0,11.0,-9.0,114717.0
53163.72119140625,940.0,-21.0,-42.0,114684.0
53190.40380859375,941.0,-50.0,-67.0,114659.0
53217.08642578125,942.0,-58.0,-72.0,114654.0
53243.76904296875,943.0,-50.0,-68.0,114658.0
53270.451904296875,944.0,-45.0,-63.0,114663.0
53297.134521484375,945.0,-46.0,-57.0,114669.0
53323.817138671875,946.0,-46.0,-47.0,114679.0
53350.499755859375,947.0,-42.0,-37.0,114689.0
53377.1826171875,948.0,-29.0,-34.0,114692.0
53403.865234375,949.0,-17.0,-39.0,114687.0
53430.5478515625,950.0,-14.0,-37.0,114689.0
53457.230712890625,951.0,-17.0,-30.0,114696.0
53483.913330078125,952.0,-15.0,-29.0,114697.0
53510.595947265625,953.0,-10.0,-27.0,114699.0
53537.278564453125,954.0,-4.0,-18.0,114708.0
53563.96142578125,955.0,0.0,-11.0,114715.0
53590.64404296875,956.0,4.0,-14.0,114712.0
53617.32666015625,957.0,10.0,-15.0,114711.0
53644.00927734375,958.0,18.0,-6.0,114720.0
53670.692138671875,959.0,27.0,8.0,114734.0
53697.374755859375,960.0,30.0,15.0,114741.0
53724.057373046875,961.0,30.0,17.0,114743.0
53750.739990234375,962.0,32.0,20.0,114746.0
53777.4228515625,963.0,35.0,22.0,114748.0
53804.10546875,964.0,40.0,21.0,114747.0
53830.7880859375,965.0,43.0,22.0,114748.0
53857.470947265625,966.0,37.0,22.0,114748.0
53884.153564453125,967.0,14.0,10.0,114736.0
53910.836181640625,968.0,-19.0,-9.0,114717.0
53937.518798828125,969.0,-38.0,-19.0,114707.0
53964.20166015625,970.0,-36.0,-16.0,114710.0
53990.88427734375,971.0,-26.0,-13.0,114713.0
54017.56689453125,972.0,-24.0,-18.0,114708.0
54044.24951171875,973.0,-32.0,-21.0,114705.0
54070.932373046875,974.0,-34.0,-20.0,114706.0
54097.614990234375,975.0,-25.0,-15.0,114711.0
54124.297607421875,976.0,-17.0,-6.0,114720.0
54150.980224609375,977.0,-13.0,3.0,114729.0
54177.6630859375,978.0,-9.0,4.0,114730.0
54204.345703125,979.0,-5.0,-3.0,114723.0
54231.0283203125,980.0,0.0,0.0,114726.0
54257.711181640625,981.0,7.0,11.0,114737.0
54284.393798828125,982.0,14.0,20.0,114746.0
54311.076416015625,983.0,16.0,23.0,114749.0
54337.759033203125,984.0,18.0,22.0,114748.0
54364.44189453125,985.0,21.0,19.0,114745.0
54391.12451171875,986.0,27.0,20.0,114746.0
54417.80712890625,987.0,34.0,24.0,114750.0
54444.48974609375,988.0,39.0,23.0,114749.0
54471.172607421875,989.0,41.0,18.0,114744.0
54497.855224609375,990.0,40.0,16.0,114742.0
54524.537841796875,991.0,44.0,21.0,114747.0
54551.220458984375,992.0,48.0,34.0,114760.0
54577.9033203125,993.0,53.0,38.0,114764.0
54604.5859375,994.0,46.0,24.0,114750.0
54631.2685546875,995.0,21.0,-1.0,114725.0
54657.951416015625,996.0,-12.0,-28.0,114698.0
54684.634033203125,997.0,-31.0,-46.0,114680.0
54711.316650390625,998.0,-30.0,-50.0,114676.0
54737.999267578125,999.0,-24.0,-41.0,114685.0
54764.68212890625,1000.0,-25.0,-27.0,114699.0
54791.36474609375,1001.0,-27.0,-18.0,114708.0
54818.04736328125,1002.0,-25.0,-19.0,114707.0
54844.72998046875,1003.0,-19.0,-19.0,114707.0
54871.412841796875,1004.0,-12.0,-11.0,114715.0
54898.095458984375,1005.0,-2.0,-7.0,114719.0
54924.778076171875,1006.0,10.0,-4.0,114722.0
54951.460693359375,1007.0,14.0,-1.0,114725.0
54978.1435546875,1008.0,17.0,0.0,114726.0
55004.826171875,1009.0,26.0,4.0,114730.0
55031.5087890625,1010.0,34.0,11.0,114737.0
55058.19140625,1011.0,37.0,21.0,114747.0
55084.874267578125,1012.0,35.0,27.0,114753.0
55111.556884765625,1013.0,37.0,25.0,114751.0
55138.239501953125,1014.0,41.0,23.0,114749.0
55164.92236328125,1015.0,49.0,27.0,114753.0
55191.60498046875,1016.0,54.0,31.0,114757.0
55218.28759765625,1017.0,55.0,30.0,114756.0
55244.97021484375,1018.0,51.0,29.0,114755.0
55271.653076171875,1019.0,49.0,27.0,114753.0
55298.335693359375,1020.0,52.0,27.0,114753.0
55325.018310546875,1021.0,56.0,27.0,114753.0
55351.700927734375,1022.0,53.0,22.0,114748.0
55378.3837890625,1023.0,29.0,7.0,114733.0
55405.06640625,1024.0,-3.0,-12.0,114714.0
55431.7490234375,1025.0,-23.0,-22.0,114704.0
55458.431640625,1026.0,-27.0,-24.0,114702.0
55485.114501953125,1027.0,-24.0,-19.0,114707.0
55511.797119140625,1028.0,-17.0,-15.0,114711.0
55538.479736328125,1029.0,-14.0,-19.0,114707.0
55565.16259765625,1030.0,-14.0,-25.0,114701.0
55591.84521484375,1031.0,-14.0,-21.0,114705.0
55618.52783203125,1032.0,-10.0,-11.0,114715.0
55645.21044921875,1033.0,-2.0,-6.0,114720.0
55671.893310546875,1034.0,3.0,-8.0,114718.0
55698.575927734375,1035.0,6.0,-8.0,114718.0
55725.258544921875,1036.0,12.0,0.0,114726.0
55751.941162109375,1037.0,17.0,8.0,114734.0
55778.6240234375,1038.0,23.0,11.0,114737.0
55805.306640625,1039.0,31.0,11.0,114737.0
55831.9892578125,1040.0,37.0,11.0,114737.0
55858.671875,1041.0,41.0,15.0,114741.0
55885.354736328125,1042.0,42.0,21.0,114747.0
55912.037353515625,1043.0,48.0,25.0,114751.0
55938.719970703125,1044.0,51.0,24.0,114750.0
55965.40283203125,1045.0,53.0,21.0,114747.0
55992.08544921875,1046.0,53.0,21.0,114747.0
56018.76806640625,1047.0,55.0,22.0,114748.0
56045.45068359375,1048.0,61.0,26.0,114752.0
56072.133544921875,1049.0,66.0,28.0,114754.0
56098.816162109375,1050.0,60.0,28.0,114754.0
56125.498779296875,1051.0,34.0,21.0,114747.0
56152.181396484375,1052.0,0.0,-1.0,114725.0
56178.8642578125,1053.0,-20.0,-21.0,114705.0
56205.546875,1054.0,-17.0,-25.0,114701.0
56232.2294921875,1055.0,-9.0,-23.0,114703.0
56258.912109375,1056.0,-11.0,-24.0,114702.0
56285.594970703125,1057.0,-18.0,-25.0,114701.0
56312.277587890625,1058.0,-19.0,-22.0,114704.0
56338.960205078125,1059.0,-10.0,-13.0,114713.0
56365.64306640625,1060.0,-1.0,-4.0,114722.0
56392.32568359375,1061.0,4.0,1.0,114727.0
56419.00830078125,1062.0,5.0,2.0,114728.0
56445.69091796875,1063.0,4.0,5.0,114731.0
56472.373779296875,1064.0,6.0,9.0,114735.0
56499.056396484375,1065.0,16.0,11.0,114737.0
56525.739013671875,1066.0,28.0,13.0,114739.0
56552.421630859375,1067.0,34.0,12.0,114738.0
56579.1044921875,1068.0,38.0,12.0,114738.0
56605.787109375,1069.0,42.0,21.0,114747.0
56632.4697265625,1070.0,48.0,33.0,114759.0
56659.15234375,1071.0,52.0,41.0,114767.0
56685.835205078125,1072.0,55.0,40.0,114766.0
56712.517822265625,1073.0,58.0,36.0,114762.0
56739.200439453125,1074.0,60.0,34.0,114760.0
56765.883056640625,1075.0,63.0,31.0,114757.0
56792.56591796875,1076.0,66.0,32.0,114758.0
56819.24853515625,1077.0,70.0,40.0,114766.0
56845.93115234375,1078.0,73.0,48.0,114774.0
56872.614013671875,1079.0,73.0,50.0,114776.0
56899.296630859375,1080.0,58.0,41.0,114767.0
56925.979248046875,1081.0,23.0,17.0,114743.0
56952.661865234375,1082.0,-3.0,-10.0,114716.0
56979.3447265625,1083.0,-9.0,-20.0,114706.0
57006.02734375,1084.0,-5.0,-14.0,114712.0
57032.7099609375,1085.0,0.0,-3.0,114723.0
57059.392578125,1086.0,3.0,4.0,114730.0
57086.075439453125,1087.0,-2.0,3.0,114729.0
57112.758056640625,1088.0,-4.0,-4.0,114722.0
57139.440673828125,1089.0,4.0,-7.0,114719.0
57166.123291015625,1090.0,8.0,-3.0,114723.0
57192.80615234375,1091.0,8.0,4.0,114730.0
57219.48876953125,1092.0,12.0,11.0,114737.0
57246.17138671875,1093.0,16.0,14.0,114740.0
57272.854248046875,1094.0,18.0,16.0,114742.0
57299.536865234375,1095.0,25.0,22.0,114748.0
57326.219482421875,1096.0,34.0,31.0,114757.0
57352.902099609375,1097.0,37.0,35.0,114761.0
57379.5849609375,1098.0,39.0,35.0,114761.0
57406.267578125,1099.0,44.0,41.0,114767.0
57432.9501953125,1100.0,48.0,46.0,114772.0
57459.6328125,1101.0,52.0,49.0,114775.0
57486.315673828125,1102.0,55.0,51.0,114777.0
57512.998291015625,1103.0,57.0,52.0,114778.0
57539.680908203125,1104.0,59.0,50.0,114776.0
57566.363525390625,1105.0,61.0,50.0,114776.0
57593.04638671875,1106.0,62.0,49.0,114775.0
57619.72900390625,1107.0,64.0,48.0,114774.0
57646.41162109375,1108.0,64.0,49.0,114775.0
57673.094482421875,1109.0,57.0,43.0,114769.0
57699.777099609375,1110.0,35.0,27.0,114753.0
57726.459716796875,1111.0,3.0,2.0,114728.0
57753.142333984375,1112.0,-22.0,-20.0,114706.0
57779.8251953125,1113.0,-32.0,-23.0,114703.0
57806.5078125,1114.0,-31.0,-20.0,114706.0
57833.1904296875,1115.0,-27.0,-18.0,114708.0
57859.873046875,1116.0,-24.0,-16.0,114710.0
57886.555908203125,1117.0,-25.0,-12.0,114714.0
57913.238525390625,1118.0,-19.0,-2.0,114724.0
57939.921142578125,1119.0,-6.0,8.0,114734.0
57966.603759765625,1120.0,1.0,9.0,114735.0
57993.28662109375,1121.0,-2.0,-1.0,114725.0
58019.96923828125,1122.0,-1.0,-7.0,114719.0
58046.65185546875,1123.0,6.0,-2.0,114724.0
58073.334716796875,1124.0,12.0,7.0,114733.0
58100.017333984375,1125.0,18.0,15.0,114741.0
58126.699951171875,1126.0,25.0,22.0,114748.0
58153.382568359375,1127.0,29.0,24.0,114750.0
58180.0654296875,1128.0,29.0,22.0,114748.0
58206.748046875,1129.0,29.0,23.0,114749.0
58233.4306640625,1130.0,35.0,29.0,114755.0
58260.11328125,1131.0,43.0,30.0,114756.0
58286.796142578125,1132.0,43.0,28.0,114754.0
58313.478759765625,1133.0,39.0,27.0,114753.0
58340.161376953125,1134.0,39.0,27.0,114753.0
58366.843994140625,1135.0,44.0,31.0,114757.0
58393.52685546875,1136.0,50.0,35.0,114761.0
58420.20947265625,1137.0,47.0,34.0,114760.0
58446.89208984375,1138.0,32.0,22.0,114748.0
58473.57470703125,1139.0,2.0,-4.0,114722.0
58500.257568359375,1140.0,-29.0,-23.0,114703.0
58526.940185546875,1141.0,-43.0,-26.0,114700.0
58553.622802734375,1142.0,-40.0,-23.0,114703.0
58580.3056640625,1143.0,-30.0,-23.0,114703.0
58606.98828125,1144.0,-27.0,-23.0,114703.0
58633.6708984375,1145.0,-32.0,-27.0,114699.0
58660.353515625,1146.0,-33.0,-29.0,114697.0
58687.036376953125,1147.0,-28.0,-20.0,114706.0
58713.718994140625,1148.0,-16.0,-11.0,114715.0
58740.401611328125,1149.0,-7.0,-12.0,114714.0
58767.084228515625,1150.0,-4.0,-13.0,114713.0
58793.76708984375,1151.0,-6.0,-11.0,114715.0
58820.44970703125,1152.0,-5.0,-11.0,114715.0
58847.13232421875,1153.0,1.0,-9.0,114717.0
58873.81494140625,1154.0,7.0,-7.0,114719.0
58900.497802734375,1155.0,11.0,-1.0,114725.0
58927.180419921875,1156.0,14.0,10.0,114736.0
58953.863037109375,1157.0,22.0,21.0,114747.0
58980.5458984375,1158.0,32.0,20.0,114746.0
59007.228515625,1159.0,36.0,11.0,114737.0
59033.9111328125,1160.0,35.0,10.0,114736.0
59060.59375,1161.0,37.0,21.0,114747.0
59087.276611328125,1162.0,41.0,29.0,114755.0
59113.959228515625,1163.0,44.0,31.0,114757.0
59140.641845703125,1164.0,46.0,32.0,114758.0
59167.324462890625,1165.0,44.0,30.0,114756.0
59194.00732421875,1166.0,37.0,19.0,114745.0
59220.68994140625,1167.0,13.0,-4.0,114722.0
59247.37255859375,1168.0,-20.0,-29.0,114697.0
59274.05517578125,1169.0,-42.0,-44.0,114682.0
59300.738037109375,1170.0,-43.0,-41.0,114685.0
59327.420654296875,1171.0,-36.0,-34.0,114692.0
59354.103271484375,1172.0,-29.0,-29.0,114697.0
59380.7861328125,1173.0,-28.0,-31.0,114695.0
59407.46875,1174.0,-34.0,-39.0,114687.0
59434.1513671875,1175.0,-36.0,-36.0,114690.0
59460.833984375,1176.0,-29.0,-23.0,114703.0
59487.516845703125,1177.0,-19.0,-13.0,114713.0
59514.199462890625,1178.0,-12.0,-5.0,114721.0
59540.882080078125,1179.0,-10.0,7.0,114733.0
59567.564697265625,1180.0,-7.0,15.0,114741.0
59594.24755859375,1181.0,0.0,13.0,114739.0
59620.93017578125,1182.0,3.0,9.0,114735.0
59647.61279296875,1183.0,-1.0,11.0,114737.0
59674.29541015625,1184.0,-5.0,9.0,114735.0
59700.978271484375,1185.0,-1.0,3.0,114729.0
59727.660888671875,1186.0,8.0,1.0,114727.0
59754.343505859375,1187.0,19.0,4.0,114730.0
59781.026123046875,1188.0,31.0,11.0,114737.0
59807.708984375,1189.0,37.0,21.0,114747.0
59834.3916015625,1190.0,38.0,29.0,114755.0
59861.07421875,1191.0,39.0,28.0,114754.0
59887.757080078125,1192.0,42.0,25.0,114751.0
59914.439697265625,1193.0,46.0,29.0,114755.0
59941.122314453125,1194.0,47.0,38.0,114764.0
59967.804931640625,1195.0,38.0,35.0,114761.0
59994.48779296875,1196.0,9.0,6.0,114732.0
60021.17041015625,1197.0,-23.0,-30.0,114696.0
60047.85302734375,1198.0,-34.0,-44.0,114682.0
60074.53564453125,1199.0,-28.0,-43.0,114683.0
60101.218505859375,1200.0,-24.0,-39.0,114687.0
60127.901123046875,1201.0,-26.0,-32.0,114694.0
60154.583740234375,1202.0,-30.0,-29.0,114697.0
60181.266357421875,1203.0,-33.0,-32.0,114694.0
60207.94921875,1204.0,-31.0,-31.0,114695.0
60234.6318359375,1205.0,-26.0,-27.0,114699.0
60261.314453125,1206.0,-25.0,-22.0,114704.0
60287.997314453125,1207.0,-22.0,-18.0,114708.0
60314.679931640625,1208.0,-14.0,-15.0,114711.0
60341.362548828125,1209.0,-7.0,-12.0,114714.0
60368.045166015625,1210.0,-2.0,-7.0,114719.0
60394.72802734375,1211.0,3.0,0.0,114726.0
60421.41064453125,1212.0,6.0,6.0,114732.0
60448.09326171875,1213.0,11.0,10.0,114736.0
60474.77587890625,1214.0,19.0,15.0,114741.0
60501.458740234375,1215.0,27.0,18.0,114744.0
60528.141357421875,1216.0,34.0,17.0,114743.0
60554.823974609375,1217.0,37.0,10.0,114736.0
60581.506591796875,1218.0,38.0,5.0,114731.0
60608.189453125,1219.0,40.0,6.0,114732.0
60634.8720703125,1220.0,39.0,10.0,114736.0
60661.5546875,1221.0,35.0,11.0,114737.0
60688.237548828125,1222.0,34.0,12.0,114738.0
60714.920166015625,1223.0,31.0,14.0,114740.0
60741.602783203125,1224.0,11.0,2.0,114728.0
60768.285400390625,1225.0,-24.0,-26.0,114700.0
60794.96826171875,1226.0,-46.0,-48.0,114678.0
60821.65087890625,1227.0,-44.0,-49.0,114677.0
60848.33349609375,1228.0,-33.0,-38.0,114688.0
60875.01611328125,1229.0,-27.0,-32.0,114694.0
60901.698974609375,1230.0,-30.0,-36.0,114690.0
60928.381591796875,1231.0,-36.0,-40.0,114686.0
60955.064208984375,1232.0,-35.0,-36.0,114690.0
60981.746826171875,1233.0,-29.0,-28.0,114698.0
61008.4296875,1234.0,-21.0,-19.0,114707.0
61035.1123046875,1235.0,-17.0,-13.0,114713.0
61061.794921875,1236.0,-18.0,-10.0,114716.0
61088.477783203125,1237.0,-14.0,-6.0,114720.0
61115.160400390625,1238.0,-7.0,4.0,114730.0
61141.843017578125,1239.0,-2.0,13.0,114739.0
61168.525634765625,1240.0,0.0,11.0,114737.0
61195.20849609375,1241.0,0.0,-2.0,114724.0
61221.89111328125,1242.0,5.0,-13.0,114713.0
61248.57373046875,1243.0,11.0,-7.0,114719.0
61275.25634765625,1244.0,15.0,12.0,114738.0
61301.939208984375,1245.0,19.0,26.0,114752.0
61328.621826171875,1246.0,22.0,31.0,114757.0
61355.304443359375,1247.0,22.0,33.0,114759.0
61381.987060546875,1248.0,22.0,28.0,114754.0
61408.669921875,1249.0,23.0,20.0,114746.0
61435.3525390625,1250.0,29.0,20.0,114746.0
61462.03515625,1251.0,23.0,18.0,114744.0
61488.7177734375,1252.0,-2.0,0.0,114726.0
61515.400634765625,1253.0,-33.0,-24.0,114702.0
61542.083251953125,1254.0,-48.0,-45.0,114681.0
61568.765869140625,1255.0,-50.0,-54.0,114672.0
61595.44873046875,1256.0,-48.0,-51.0,114675.0
61622.13134765625,1257.0,-45.0,-38.0,114688.0
61648.81396484375,1258.0,-41.0,-24.0,114702.0
61675.49658203125,1259.0,-43.0,-15.0,114711.0
61702.179443359375,1260.0,-39.0,-12.0,114714.0
61728.862060546875,1261.0,-34.0,-6.0,114720.0
61755.544677734375,1262.0,-31.0,-1.0,114725.0
61782.227294921875,1263.0,-28.0,-3.0,114723.0
61808.91015625,1264.0,-28.0,-4.0,114722.0
61835.5927734375,1265.0,-27.0,-4.0,114722.0
61862.275390625,1266.0,-22.0,-6.0,114720.0
61888.9580078125,1267.0,-16.0,-5.0,114721.0
61915.640869140625,1268.0,-10.0,4.0,114730.0
61942.323486328125,1269.0,-2.0,20.0,114746.0
61969.006103515625,1270.0,3.0,26.0,114752.0
61995.68896484375,1271.0,6.0,19.0,114745.0
62022.37158203125,1272.0,11.0,14.0,114740.0
62049.05419921875,1273.0,15.0,17.0,114743.0
62075.73681640625,1274.0,20.0,26.0,114752.0
62102.419677734375,1275.0,25.0,34.0,114760.0
62129.102294921875,1276.0,30.0,35.0,114761.0
62155.784912109375,1277.0,28.0,35.0,114761.0
62182.467529296875,1278.0,27.0,37.0,114763.0
62209.150390625,1279.0,25.0,31.0,114757.0
62235.8330078125,1280.0,6.0,13.0,114739.0
62262.515625,1281.0,-30.0,-14.0,114712.0
62289.1982421875,1282.0,-58.0,-39.0,114687.0
62315.881103515625,1283.0,-65.0,-47.0,114679.0
62342.563720703125,1284.0,-60.0,-37.0,114689.0
62369.246337890625,1285.0,-55.0,-26.0,114700.0
62395.92919921875,1286.0,-54.0,-23.0,114703.0
62422.61181640625,1287.0,-57.0,-20.0,114706.0
62449.29443359375,1288.0,-57.0,-17.0,114709.0
62475.97705078125,1289.0,-50.0,-14.0,114712.0
62502.659912109375,1290.0,-44.0,-12.0,114714.0
62529.342529296875,1291.0,-43.0,-14.0,114712.0
62556.025146484375,1292.0,-44.0,-15.0,114711.0
62582.707763671875,1293.0,-39.0,-11.0,114715.0
62609.390625,1294.0,-31.0,-11.0,114715.0
62636.0732421875,1295.0,-25.0,-14.0,114712.0
62662.755859375,1296.0,-22.0,-17.0,114709.0
62689.4384765625,1297.0,-17.0,-16.0,114710.0
62716.121337890625,1298.0,-11.0,-10.0,114716.0
62742.803955078125,1299.0,-7.0,-6.0,114720.0
62769.486572265625,1300.0,0.0,-2.0,114724.0
62796.16943359375,1301.0,9.0,5.0,114731.0
62822.85205078125,1302.0,13.0,12.0,114738.0
62849.53466796875,1303.0,14.0,15.0,114741.0
62876.21728515625,1304.0,14.0,18.0,114744.0
62902.900146484375,1305.0,15.0,23.0,114749.0
62929.582763671875,1306.0,20.0,22.0,114748.0
62956.265380859375,1307.0,24.0,17.0,114743.0
62982.947998046875,1308.0,9.0,1.0,114727.0
63009.630859375,1309.0,-23.0,-23.0,114703.0
63036.3134765625,1310.0,-53.0,-41.0,114685.0
63062.99609375,1311.0,-65.0,-43.0,114683.0
63089.6787109375,1312.0,-61.0,-39.0,114687.0
63116.361572265625,1313.0,-55.0,-35.0,114691.0
63143.044189453125,1314.0,-54.0,-33.0,114693.0
63169.726806640625,1315.0,-54.0,-28.0,114698.0
63196.409423828125,1316.0,-55.0,-22.0,114704.0
63223.09228515625,1317.0,-52.0,-21.0,114705.0
63249.77490234375,1318.0,-45.0,-23.0,114703.0
63276.45751953125,1319.0,-42.0,-20.0,114706.0
63303.140380859375,1320.0,-40.0,-16.0,114710.0
63329.822998046875,1321.0,-38.0,-16.0,114710.0
63356.505615234375,1322.0,-36.0,-15.0,114711.0
63383.188232421875,1323.0,-32.0,-10.0,114716.0
63409.87109375,1324.0,-25.0,-4.0,114722.0
63436.5537109375,1325.0,-16.0,0.0,114726.0
63463.236328125,1326.0,-9.0,2.0,114728.0
63489.9189453125,1327.0,-4.0,5.0,114731.0
63516.601806640625,1328.0,2.0,7.0,114733.0
63543.284423828125,1329.0,7.0,7.0,114733.0
63569.967041015625,1330.0,12.0,9.0,114735.0
63596.649658203125,1331.0,15.0,19.0,114745.0
63623.33251953125,1332.0,14.0,30.0,114756.0
63650.01513671875,1333.0,12.0,29.0,114755.0
63676.69775390625,1334.0,12.0,24.0,114750.0
63703.380615234375,1335.0,8.0,25.0,114751.0
63730.063232421875,1336.0,-11.0,14.0,114740.0
63756.745849609375,1337.0,-44.0,-11.0,114715.0
63783.428466796875,1338.0,-71.0,-29.0,114697.0
63810.111328125,1339.0,-75.0,-33.0,114693.0
63836.7939453125,1340.0,-63.0,-31.0,114695.0
63863.4765625,1341.0,-60.0,-28.0,114698.0
63890.1591796875,1342.0,-66.0,-27.0,114699.0
63916.842041015625,1343.0,-67.0,-26.0,114700.0
63943.524658203125,1344.0,-60.0,-20.0,114706.0
63970.207275390625,1345.0,-52.0,-8.0,114718.0
63996.889892578125,1346.0,-44.0,-4.0,114722.0
64023.57275390625,1347.0,-40.0,-15.0,114711.0
64050.25537109375,1348.0,-37.0,-26.0,114700.0
64076.93798828125,1349.0,-33.0,-26.0,114700.0
64103.620849609375,1350.0,-26.0,-19.0,114707.0
64130.303466796875,1351.0,-19.0,-10.0,114716.0
64156.986083984375,1352.0,-12.0,-2.0,114724.0
64183.668701171875,1353.0,-9.0,5.0,114731.0
64210.3515625,1354.0,-7.0,10.0,114736.0
64237.0341796875,1355.0,-4.0,8.0,114734.0
64263.716796875,1356.0,1.0,11.0,114737.0
64290.3994140625,1357.0,5.0,21.0,114747.0
64317.082275390625,1358.0,8.0,28.0,114754.0
64343.764892578125,1359.0,14.0,25.0,114751.0
64370.447509765625,1360.0,17.0,21.0,114747.0
64397.130126953125,1361.0,21.0,23.0,114749.0
64423.81298828125,1362.0,27.0,27.0,114753.0
64450.49560546875,1363.0,29.0,25.0,114751.0
64477.17822265625,1364.0,10.0,13.0,114739.0
64503.861083984375,1365.0,-24.0,-8.0,114718.0
64530.543701171875,1366.0,-47.0,-22.0,114704.0
64557.226318359375,1367.0,-48.0,-24.0,114702.0
64583.908935546875,1368.0,-38.0,-22.0,114704.0
64610.591796875,1369.0,-33.0,-24.0,114702.0
64637.2744140625,1370.0,-39.0,-28.0,114698.0
64663.95703125,1371.0,-45.0,-27.0,114699.0
64690.6396484375,1372.0,-41.0,-20.0,114706.0
64717.322509765625,1373.0,-29.0,-12.0,114714.0
64744.005126953125,1374.0,-22.0,-12.0,114714.0
64770.687744140625,1375.0,-19.0,-16.0,114710.0
64797.370361328125,1376.0,-16.0,-12.0,114714.0
64824.05322265625,1377.0,-14.0,-7.0,114719.0
64850.73583984375,1378.0,-14.0,-3.0,114723.0
64877.41845703125,1379.0,-12.0,-2.0,114724.0
64904.10107421875,1380.0,-7.0,2.0,114728.0
64930.783935546875,1381.0,-2.0,8.0,114734.0
64957.466552734375,1382.0,3.0,11.0,114737.0
64984.149169921875,1383.0,5.0,6.0,114732.0
65010.83203125,1384.0,-1.0,2.0,114728.0
65037.5146484375,1385.0,-6.0,7.0,114733.0
65064.197265625,1386.0,-7.0,10.0,114736.0
65090.8798828125,1387.0,-9.0,2.0,114728.0
65117.562744140625,1388.0,-11.0,-2.0,114724.0
65144.245361328125,1389.0,-7.0,1.0,114727.0
65170.927978515625,1390.0,-1.0,9.0,114735.0
65197.610595703125,1391.0,6.0,15.0,114741.0
65224.29345703125,1392.0,10.0,11.0,114737.0
65250.97607421875,1393.0,-8.0,-10.0,114716.0
65277.65869140625,1394.0,-40.0,-33.0,114693.0
65304.34130859375,1395.0,-58.0,-43.0,114683.0
65331.024169921875,1396.0,-56.0,-42.0,114684.0
65357.706787109375,1397.0,-47.0,-33.0,114693.0
65384.389404296875,1398.0,-41.0,-27.0,114699.0
65411.072265625,1399.0,-44.0,-26.0,114700.0
65437.7548828125,1400.0,-51.0,-27.0,114699.0
65464.4375,1401.0,-51.0,-32.0,114694.0
65491.1201171875,1402.0,-45.0,-37.0,114689.0
65517.802978515625,1403.0,-40.0,-36.0,114690.0
65544.48559570312,1404.0,-36.0,-33.0,114693.0
65571.16821289062,1405.0,-34.0,-29.0,114697.0
65597.85083007812,1406.0,-32.0,-26.0,114700.0
65624.53369140625,1407.0,-27.0,-22.0,114704.0
65651.21630859375,1408.0,-22.0,-16.0,114710.0
65677.89892578125,1409.0,-13.0,-10.0,114716.0
65704.58154296875,1410.0,-4.0,-6.0,114720.0
65731.26440429688,1411.0,4.0,-3.0,114723.0
65757.94702148438,1412.0,10.0,1.0,114727.0
65784.62963867188,1413.0,13.0,6.0,114732.0
65811.3125,1414.0,11.0,8.0,114734.0
65837.9951171875,1415.0,10.0,5.0,114731.0
65864.677734375,1416.0,14.0,1.0,114727.0
65891.3603515625,1417.0,18.0,2.0,114728.0
65918.04321289062,1418.0,22.0,8.0,114734.0
65944.72583007812,1419.0,21.0,18.0,114744.0
65971.40844726562,1420.0,15.0,22.0,114748.0
65998.09106445312,1421.0,-3.0,9.0,114735.0
66024.77392578125,1422.0,-35.0,-24.0,114702.0
66051.45654296875,1423.0,-64.0,-50.0,114676.0
66078.13916015625,1424.0,-73.0,-49.0,114677.0
66104.82177734375,1425.0,-66.0,-36.0,114690.0
66131.50463867188,1426.0,-56.0,-34.0,114692.0
66158.18725585938,1427.0,-53.0,-41.0,114685.0
66184.86987304688,1428.0,-52.0,-41.0,114685.0
66211.552734375,1429.0,-47.0,-37.0,114689.0
66238.2353515625,1430.0,-37.0,-32.0,114694.0
66264.91796875,1431.0,-31.0,-27.0,114699.0
66291.6005859375,1432.0,-32.0,-20.0,114706.0
66318.28344726562,1433.0,-32.0,-15.0,114711.0
66344.96606445312,1434.0,-27.0,-15.0,114711.0
66371.64868164062,1435.0,-18.0,-10.0,114716.0
66398.33129882812,1436.0,-9.0,1.0,114727.0
66425.01416015625,1437.0,-6.0,6.0,114732.0
66451.69677734375,1438.0,-7.0,7.0,114733.0
66478.37939453125,1439.0,-4.0,11.0,114737.0
66505.06201171875,1440.0,4.0,18.0,114744.0
66531.74487304688,1441.0,12.0,23.0,114749.0
66558.42749023438,1442.0,17.0,23.0,114749.0
66585.11010742188,1443.0,23.0,25.0,114751.0
66611.79272460938,1444.0,30.0,32.0,114758.0
66638.4755859375,1445.0,35.0,34.0,114760.0
66665.158203125,1446.0,38.0,41.0,114767.0
66691.8408203125,1447.0,44.0,51.0,114777.0
66718.52368164062,1448.0,45.0,55.0,114781.0
66745.20629882812,1449.0,32.0,43.0,114769.0
66771.88891601562,1450.0,-1.0,14.0,114740.0
66798.57153320312,1451.0,-32.0,-15.0,114711.0
66825.25439453125,1452.0,-44.0,-32.0,114694.0
66851.93701171875,1453.0,-42.0,-38.0,114688.0
66878.61962890625,1454.0,-37.0,-37.0,114689.0
66905.30224609375,1455.0,-35.0,-32.0,114694.0
66931.98510742188,1456.0,-36.0,-26.0,114700.0
66958.66772460938,1457.0,-39.0,-22.0,114704.0
66985.35034179688,1458.0,-31.0,-18.0,114708.0
67012.03295898438,1459.0,-22.0,-14.0,114712.0
67038.7158203125,1460.0,-21.0,-17.0,114709.0
67065.3984375,1461.0,-22.0,-19.0,114707.0
67092.0810546875,1462.0,-18.0,-10.0,114716.0
67118.76391601562,1463.0,-13.0,4.0,114730.0
67145.44653320312,1464.0,-10.0,8.0,114734.0
67172.12915039062,1465.0,-8.0,6.0,114732.0
67198.81176757812,1466.0,-1.0,5.0,114731.0
67225.49462890625,1467.0,10.0,11.0,114737.0
67252.17724609375,1468.0,17.0,18.0,114744.0
67278.85986328125,1469.0,24.0,28.0,114754.0
67305.54248046875,1470.0,32.0,37.0,114763.0
67332.22534179688,1471.0,36.0,36.0,114762.0
67358.90795898438,1472.0,35.0,31.0,114757.0
67385.59057617188,1473.0,35.0,35.0,114761.0
67412.27319335938,1474.0,37.0,40.0,114766.0
67438.9560546875,1475.0,44.0,41.0,114767.0
67465.638671875,1476.0,47.0,44.0,114770.0
67492.3212890625,1477.0,45.0,43.0,114769.0
67519.00415039062,1478.0,27.0,31.0,114757.0
67545.68676757812,1479.0,-5.0,5.0,114731.0
67572.36938476562,1480.0,-32.0,-21.0,114705.0
67599.05200195312,1481.0,-41.0,-36.0,114690.0
67625.73486328125,1482.0,-38.0,-31.0,114695.0
