timestamp,sampleNum,BIOZI,BIOZQ,BIOZ
68272.6826171875,1.0,167889.0,-75231.0,127159.0
68291.365234375,2.0,248795.0,-118086.0,84304.0
68310.0478515625,3.0,314629.0,-153633.0,48757.0
68328.73046875,4.0,360488.0,-178845.0,23545.0
68347.4130859375,5.0,387425.0,-194018.0,8372.0
68366.095703125,6.0,399306.0,-201066.0,1324.0
68384.77807617188,7.0,400733.0,-202390.0,0.0
68403.46069335938,8.0,395872.0,-200209.0,2181.0
68422.14331054688,9.0,387938.0,-196262.0,6128.0
68440.82592773438,10.0,379098.0,-191740.0,10650.0
68459.50854492188,11.0,370612.0,-187349.0,15041.0
68478.19116210938,12.0,363065.0,-183425.0,18965.0
68496.87377929688,13.0,356592.0,-180062.0,22328.0
68515.55639648438,14.0,351081.0,-177210.0,25180.0
68534.23901367188,15.0,346315.0,-174760.0,27630.0
68552.92163085938,16.0,342063.0,-172590.0,29800.0
68571.60424804688,17.0,338125.0,-170592.0,31798.0
68590.28686523438,18.0,334355.0,-168688.0,33702.0
68608.96923828125,19.0,330659.0,-166825.0,35565.0
68627.65185546875,20.0,326981.0,-164972.0,37418.0
68646.33447265625,21.0,323298.0,-163118.0,39272.0
68665.01708984375,22.0,319605.0,-161266.0,41124.0
68683.69970703125,23.0,315910.0,-159417.0,42973.0
68702.38232421875,24.0,312222.0,-157578.0,44812.0
68721.06494140625,25.0,308556.0,-155748.0,46642.0
68739.74755859375,26.0,304923.0,-153932.0,48458.0
68758.43017578125,27.0,301331.0,-152131.0,50259.0
68777.11279296875,28.0,297785.0,-150345.0,52045.0
68795.79541015625,29.0,294285.0,-148578.0,53812.0
68814.47802734375,30.0,290832.0,-146829.0,55561.0
68833.16040039062,31.0,287423.0,-145102.0,57288.0
68851.84301757812,32.0,284057.0,-143395.0,58995.0
68870.52563476562,33.0,280732.0,-141709.0,60681.0
68889.20825195312,34.0,277447.0,-140044.0,62346.0
68907.89086914062,35.0,274200.0,-138400.0,63990.0
68926.57348632812,36.0,270990.0,-136775.0,65615.0
68945.25610351562,37.0,267816.0,-135170.0,67220.0
68963.93872070312,38.0,264681.0,-133583.0,68807.0
68982.62133789062,39.0,261581.0,-132014.0,70376.0
69001.30395507812,40.0,258515.0,-130465.0,71925.0
69019.98657226562,41.0,255482.0,-128935.0,73455.0
69038.66918945312,42.0,252482.0,-127426.0,74964.0
69057.35180664062,43.0,249515.0,-125936.0,76454.0
69076.0341796875,44.0,246585.0,-124463.0,77927.0
69094.716796875,45.0,243693.0,-123006.0,79384.0
69113.3994140625,46.0,240835.0,-121566.0,80824.0
69132.08203125,47.0,238012.0,-120140.0,82250.0
69150.7646484375,48.0,235223.0,-118730.0,83660.0
69169.447265625,49.0,232469.0,-117336.0,85054.0
69188.1298828125,50.0,229748.0,-115957.0,86433.0
69206.8125,51.0,227058.0,-114594.0,87796.0
69225.4951171875,52.0,224400.0,-113247.0,89143.0
69244.177734375,53.0,221772.0,-111917.0,90473.0
69262.8603515625,54.0,219174.0,-110602.0,91788.0
69281.54296875,55.0,216606.0,-109305.0,93085.0
69300.22534179688,56.0,214069.0,-108022.0,94368.0
69318.90795898438,57.0,211562.0,-106755.0,95635.0
69337.59057617188,58.0,209086.0,-105503.0,96887.0
69356.27319335938,59.0,206640.0,-104265.0,98125.0
69374.95581054688,60.0,204222.0,-103042.0,99348.0
69393.63842773438,61.0,201830.0,-101833.0,100557.0
69412.32104492188,62.0,199466.0,-100638.0,101752.0
69431.00366210938,63.0,197127.0,-99459.0,102931.0
69449.68627929688,64.0,194811.0,-98299.0,104091.0
69468.36889648438,65.0,192517.0,-97158.0,105232.0
69487.05151367188,66.0,190246.0,-96034.0,106356.0
69505.73413085938,67.0,188003.0,-94921.0,107469.0
69524.41674804688,68.0,185788.0,-93820.0,108570.0
69543.09912109375,69.0,183605.0,-92727.0,109663.0
69561.78173828125,70.0,181452.0,-91642.0,110748.0
69580.46435546875,71.0,179328.0,-90566.0,111824.0
69599.14697265625,72.0,177230.0,-89500.0,112890.0
69617.82958984375,73.0,175158.0,-88445.0,113945.0
69636.51220703125,74.0,173112.0,-87401.0,114989.0
69655.19482421875,75.0,171088.0,-86372.0,116018.0
69673.87744140625,76.0,169086.0,-85357.0,117033.0
69692.56005859375,77.0,167107.0,-84355.0,118035.0
69711.24267578125,78.0,165150.0,-83364.0,119026.0
69729.92529296875,79.0,163217.0,-82385.0,120005.0
69748.60791015625,80.0,161306.0,-81417.0,120973.0
69767.29028320312,81.0,159418.0,-80459.0,121931.0
69785.97290039062,82.0,157552.0,-79512.0,122878.0
69804.65551757812,83.0,155705.0,-78579.0,123811.0
69823.33813476562,84.0,153879.0,-77658.0,124732.0
69842.02075195312,85.0,152074.0,-76748.0,125642.0
69860.70336914062,86.0,150290.0,-75850.0,126540.0
69879.38598632812,87.0,148529.0,-74961.0,127429.0
69898.06860351562,88.0,146790.0,-74080.0,128310.0
69916.75122070312,89.0,145071.0,-73210.0,129180.0
69935.43383789062,90.0,143374.0,-72349.0,130041.0
69954.11645507812,91.0,141698.0,-71498.0,130892.0
69972.79907226562,92.0,140041.0,-70658.0,131732.0
69991.4814453125,93.0,138404.0,-69827.0,132563.0
70010.1640625,94.0,136787.0,-69005.0,133385.0
70028.8466796875,95.0,135189.0,-68194.0,134196.0
70047.529296875,96.0,133609.0,-67391.0,134999.0
70066.2119140625,97.0,132048.0,-66599.0,135791.0
70084.89453125,98.0,130505.0,-65816.0,136574.0
70103.5771484375,99.0,128981.0,-65042.0,137348.0
70122.259765625,100.0,127472.0,-64281.0,138109.0
70140.9423828125,101.0,125974.0,-63532.0,138858.0
70159.625,102.0,124487.0,-62798.0,139592.0
70178.3076171875,103.0,123015.0,-62074.0,140316.0
70196.990234375,104.0,121561.0,-61357.0,141033.0
70215.6728515625,105.0,120127.0,-60646.0,141744.0
70234.35522460938,106.0,118713.0,-59939.0,142451.0
70253.03784179688,107.0,117319.0,-59236.0,143154.0
70271.72045898438,108.0,115942.0,-58540.0,143850.0
70290.40307617188,109.0,114583.0,-57849.0,144541.0
70309.08569335938,110.0,113239.0,-57167.0,145223.0
70327.76831054688,111.0,111911.0,-56493.0,145897.0
70346.45092773438,112.0,110599.0,-55828.0,146562.0
70365.13354492188,113.0,109303.0,-55171.0,147219.0
70383.81616210938,114.0,108025.0,-54522.0,147868.0
70402.49877929688,115.0,106766.0,-53881.0,148509.0
70421.18139648438,116.0,105524.0,-53247.0,149143.0
70439.86401367188,117.0,104297.0,-52621.0,149769.0
70458.54638671875,118.0,103083.0,-52002.0,150388.0
70477.22900390625,119.0,101879.0,-51390.0,151000.0
70495.91162109375,120.0,100685.0,-50787.0,151603.0
70514.59423828125,121.0,99502.0,-50193.0,152197.0
70533.27685546875,122.0,98333.0,-49605.0,152785.0
70551.95947265625,123.0,97178.0,-49023.0,153367.0
70570.64208984375,124.0,96037.0,-48447.0,153943.0
70589.32470703125,125.0,94912.0,-47876.0,154514.0
70608.00732421875,126.0,93800.0,-47312.0,155078.0
70626.68994140625,127.0,92703.0,-46755.0,155635.0
70645.37255859375,128.0,91620.0,-46204.0,156186.0
70664.05517578125,129.0,90549.0,-45660.0,156730.0
70682.73754882812,130.0,89491.0,-45124.0,157266.0
70701.42016601562,131.0,88445.0,-44592.0,157798.0
70720.10278320312,132.0,87413.0,-44067.0,158323.0
70738.78540039062,133.0,86392.0,-43548.0,158842.0
70757.46801757812,134.0,85381.0,-43036.0,159354.0
70776.15063476562,135.0,84380.0,-42532.0,159858.0
70794.83325195312,136.0,83387.0,-42037.0,160353.0
70813.51586914062,137.0,82400.0,-41556.0,160834.0
70832.19848632812,138.0,81421.0,-41082.0,161308.0
70850.88110351562,139.0,80455.0,-40614.0,161776.0
70869.56372070312,140.0,79503.0,-40148.0,162242.0
70888.24633789062,141.0,78565.0,-39683.0,162707.0
70906.92895507812,142.0,77643.0,-39219.0,163171.0
70925.611328125,143.0,76734.0,-38756.0,163634.0
70944.2939453125,144.0,75838.0,-38297.0,164093.0
70962.9765625,145.0,74953.0,-37843.0,164547.0
70981.6591796875,146.0,74080.0,-37395.0,164995.0
71000.341796875,147.0,73216.0,-36951.0,165439.0
71019.0244140625,148.0,72361.0,-36514.0,165876.0
71037.70703125,149.0,71515.0,-36083.0,166307.0
71056.3896484375,150.0,70677.0,-35659.0,166731.0
71075.072265625,151.0,69850.0,-35239.0,167151.0
71093.7548828125,152.0,69033.0,-34826.0,167564.0
71112.4375,153.0,68225.0,-34417.0,167973.0
71131.1201171875,154.0,67427.0,-34013.0,168377.0
71149.80249023438,155.0,66637.0,-33617.0,168773.0
71168.48510742188,156.0,65855.0,-33226.0,169164.0
71187.16772460938,157.0,65082.0,-32840.0,169550.0
71205.85034179688,158.0,64318.0,-32458.0,169932.0
71224.53295898438,159.0,63563.0,-32077.0,170313.0
71243.21557617188,160.0,62818.0,-31699.0,170691.0
71261.89819335938,161.0,62082.0,-31326.0,171064.0
71280.58081054688,162.0,61356.0,-30956.0,171434.0
71299.26342773438,163.0,60640.0,-30590.0,171800.0
71317.94604492188,164.0,59934.0,-30228.0,172162.0
71336.62866210938,165.0,59234.0,-29872.0,172518.0
71355.31127929688,166.0,58541.0,-29520.0,172870.0
71373.99365234375,167.0,57854.0,-29171.0,173219.0
71392.67626953125,168.0,57175.0,-28827.0,173563.0
71411.35888671875,169.0,56503.0,-28488.0,173902.0
71430.04150390625,170.0,55838.0,-28157.0,174233.0
71448.72412109375,171.0,55179.0,-27832.0,174558.0
71467.40673828125,172.0,54524.0,-27513.0,174877.0
71486.08935546875,173.0,53876.0,-27200.0,175190.0
71504.77197265625,174.0,53237.0,-26889.0,175501.0
71523.45458984375,175.0,52607.0,-26580.0,175810.0
71542.13720703125,176.0,51990.0,-26272.0,176118.0
71560.81982421875,177.0,51385.0,-25963.0,176427.0
71579.50244140625,178.0,50789.0,-25657.0,176733.0
71598.18505859375,179.0,50201.0,-25351.0,177039.0
71616.86743164062,180.0,49618.0,-25050.0,177340.0
71635.55004882812,181.0,49040.0,-24752.0,177638.0
71654.23266601562,182.0,48468.0,-24458.0,177932.0
71672.91528320312,183.0,47902.0,-24168.0,178222.0
71691.59790039062,184.0,47343.0,-23881.0,178509.0
71710.28051757812,185.0,46790.0,-23599.0,178791.0
71728.96313476562,186.0,46243.0,-23322.0,179068.0
71747.64575195312,187.0,45702.0,-23047.0,179343.0
71766.32836914062,188.0,45166.0,-22776.0,179614.0
71785.01098632812,189.0,44636.0,-22509.0,179881.0
71803.69360351562,190.0,44112.0,-22247.0,180143.0
71822.37622070312,191.0,43594.0,-21988.0,180402.0
71841.05859375,192.0,43082.0,-21732.0,180658.0
71859.7412109375,193.0,42577.0,-21479.0,180911.0
71878.423828125,194.0,42080.0,-21227.0,181163.0
71897.1064453125,195.0,41589.0,-20976.0,181414.0
71915.7890625,196.0,41106.0,-20728.0,181662.0
71934.4716796875,197.0,40628.0,-20483.0,181907.0
71953.154296875,198.0,40154.0,-20241.0,182149.0
71971.8369140625,199.0,39684.0,-20000.0,182390.0
71990.51953125,200.0,39219.0,-19764.0,182626.0
72009.2021484375,201.0,38760.0,-19529.0,182861.0
72027.884765625,202.0,38308.0,-19298.0,183092.0
72046.5673828125,203.0,37860.0,-19070.0,183320.0
72065.25,204.0,37415.0,-18847.0,183543.0
72083.93237304688,205.0,36974.0,-18630.0,183760.0
72102.61499023438,206.0,36532.0,-18420.0,183970.0
72121.29760742188,207.0,36091.0,-18216.0,184174.0
72139.98022460938,208.0,35656.0,-18014.0,184376.0
72158.66284179688,209.0,35229.0,-17813.0,184577.0
72177.34545898438,210.0,34811.0,-17611.0,184779.0
72196.02807617188,211.0,34402.0,-17407.0,184983.0
72214.71069335938,212.0,34002.0,-17201.0,185189.0
72233.39331054688,213.0,33607.0,-16995.0,185395.0
72252.07592773438,214.0,33219.0,-16792.0,185598.0
72270.75854492188,215.0,32836.0,-16591.0,185799.0
72289.44116210938,216.0,32457.0,-16391.0,185999.0
72308.12353515625,217.0,32081.0,-16193.0,186197.0
72326.80615234375,218.0,31708.0,-15999.0,186391.0
72345.48876953125,219.0,31338.0,-15810.0,186580.0
72364.17138671875,220.0,30973.0,-15623.0,186767.0
72382.85400390625,221.0,30611.0,-15438.0,186952.0
72401.53662109375,222.0,30254.0,-15254.0,187136.0
72420.21923828125,223.0,29900.0,-15075.0,187315.0
72438.90185546875,224.0,29550.0,-14899.0,187491.0
72457.58447265625,225.0,29202.0,-14727.0,187663.0
72476.26708984375,226.0,28860.0,-14558.0,187832.0
72494.94970703125,227.0,28522.0,-14390.0,188000.0
72513.63232421875,228.0,28189.0,-14223.0,188167.0
72532.31469726562,229.0,27860.0,-14055.0,188335.0
72550.99731445312,230.0,27536.0,-13888.0,188502.0
72569.67993164062,231.0,27215.0,-13722.0,188668.0
72588.36254882812,232.0,26900.0,-13559.0,188831.0
72607.04516601562,233.0,26589.0,-13396.0,188994.0
72625.72778320312,234.0,26282.0,-13235.0,189155.0
72644.41040039062,235.0,25975.0,-13077.0,189313.0
72663.09301757812,236.0,25669.0,-12921.0,189469.0
72681.77563476562,237.0,25366.0,-12769.0,189621.0
72700.45825195312,238.0,25067.0,-12619.0,189771.0
72719.14086914062,239.0,24769.0,-12473.0,189917.0
72737.82348632812,240.0,24473.0,-12334.0,190056.0
72756.50610351562,241.0,24178.0,-12200.0,190190.0
72775.1884765625,242.0,23886.0,-12068.0,190322.0
72793.87109375,243.0,23597.0,-11937.0,190453.0
72812.5537109375,244.0,23312.0,-11805.0,190585.0
72831.236328125,245.0,23034.0,-11672.0,190718.0
72849.9189453125,246.0,22762.0,-11537.0,190853.0
72868.6015625,247.0,22497.0,-11402.0,190988.0
72887.2841796875,248.0,22237.0,-11265.0,191125.0
72905.966796875,249.0,21982.0,-11127.0,191263.0
72924.6494140625,250.0,21731.0,-10991.0,191399.0
72943.33203125,251.0,21483.0,-10855.0,191535.0
72962.0146484375,252.0,21239.0,-10723.0,191667.0
72980.697265625,253.0,20998.0,-10592.0,191798.0
72999.37963867188,254.0,20756.0,-10465.0,191925.0
73018.06225585938,255.0,20516.0,-10341.0,192049.0
73036.74487304688,256.0,20276.0,-10219.0,192171.0
73055.42749023438,257.0,20037.0,-10101.0,192289.0
73074.11010742188,258.0,19799.0,-9985.0,192405.0
73092.79272460938,259.0,19564.0,-9873.0,192517.0
73111.47534179688,260.0,19332.0,-9762.0,192628.0
73130.15795898438,261.0,19102.0,-9651.0,192739.0
73148.84057617188,262.0,18876.0,-9540.0,192850.0
73167.52319335938,263.0,18653.0,-9429.0,192961.0
73186.20581054688,264.0,18435.0,-9318.0,193072.0
73204.88842773438,265.0,18223.0,-9207.0,193183.0
73223.57080078125,266.0,18013.0,-9097.0,193293.0
73242.25341796875,267.0,17807.0,-8987.0,193403.0
73260.93603515625,268.0,17602.0,-8878.0,193512.0
73279.61865234375,269.0,17397.0,-8771.0,193619.0
73298.30126953125,270.0,17194.0,-8666.0,193724.0
73316.98388671875,271.0,16993.0,-8561.0,193829.0
73335.66650390625,272.0,16796.0,-8458.0,193932.0
73354.34912109375,273.0,16600.0,-8359.0,194031.0
73373.03173828125,274.0,16405.0,-8264.0,194126.0
73391.71435546875,275.0,16207.0,-8174.0,194216.0
73410.39697265625,276.0,16009.0,-8087.0,194303.0
73429.07958984375,277.0,15813.0,-8002.0,194388.0
73447.76220703125,278.0,15620.0,-7918.0,194472.0
73466.44458007812,279.0,15432.0,-7830.0,194560.0
73485.12719726562,280.0,15250.0,-7741.0,194649.0
73503.80981445312,281.0,15071.0,-7650.0,194740.0
73522.49243164062,282.0,14895.0,-7558.0,194832.0
73541.17504882812,283.0,14723.0,-7465.0,194925.0
73559.85766601562,284.0,14553.0,-7373.0,195017.0
73578.54028320312,285.0,14387.0,-7281.0,195109.0
73597.22290039062,286.0,14222.0,-7192.0,195198.0
73615.90551757812,287.0,14060.0,-7105.0,195285.0
73634.58813476562,288.0,13900.0,-7019.0,195371.0
73653.27075195312,289.0,13741.0,-6934.0,195456.0
73671.95336914062,290.0,13583.0,-6850.0,195540.0
73690.6357421875,291.0,13425.0,-6768.0,195622.0
73709.318359375,292.0,13267.0,-6688.0,195702.0
73728.0009765625,293.0,13110.0,-6611.0,195779.0
73746.68359375,294.0,12952.0,-6536.0,195854.0
73765.3662109375,295.0,12794.0,-6463.0,195927.0
73784.048828125,296.0,12640.0,-6390.0,196000.0
73802.7314453125,297.0,12490.0,-6317.0,196073.0
73821.4140625,298.0,12343.0,-6244.0,196146.0
73840.0966796875,299.0,12197.0,-6171.0,196219.0
73858.779296875,300.0,12054.0,-6098.0,196292.0
73877.4619140625,301.0,11914.0,-6023.0,196367.0
73896.14453125,302.0,11777.0,-5951.0,196439.0
73914.8271484375,303.0,11642.0,-5878.0,196512.0
73933.50952148438,304.0,11507.0,-5805.0,196585.0
73952.19213867188,305.0,11373.0,-5734.0,196656.0
73970.87475585938,306.0,11240.0,-5666.0,196724.0
73989.55737304688,307.0,11103.0,-5603.0,196787.0
74008.23999023438,308.0,10966.0,-5547.0,196843.0
74026.92260742188,309.0,10829.0,-5493.0,196897.0
74045.60522460938,310.0,10692.0,-5439.0,196951.0
74064.28784179688,311.0,10558.0,-5385.0,197005.0
74082.97045898438,312.0,10429.0,-5326.0,197064.0
74101.65307617188,313.0,10304.0,-5265.0,197125.0
74120.33569335938,314.0,10183.0,-5202.0,197188.0
74139.01831054688,315.0,10064.0,-5137.0,197253.0
74157.70068359375,316.0,9952.0,-5073.0,197317.0
74176.38330078125,317.0,9840.0,-5010.0,197380.0
74195.06591796875,318.0,9730.0,-4947.0,197443.0
74213.74853515625,319.0,9620.0,-4886.0,197504.0
74232.43115234375,320.0,9510.0,-4825.0,197565.0
74251.11376953125,321.0,9400.0,-4766.0,197624.0
74269.79638671875,322.0,9292.0,-4708.0,197682.0
74288.47900390625,323.0,9184.0,-4652.0,197738.0
74307.16162109375,324.0,9079.0,-4597.0,197793.0
74325.84423828125,325.0,8973.0,-4543.0,197847.0
74344.52685546875,326.0,8867.0,-4490.0,197900.0
74363.20947265625,327.0,8761.0,-4441.0,197949.0
74381.89184570312,328.0,8658.0,-4391.0,197999.0
74400.57446289062,329.0,8556.0,-4340.0,198050.0
74419.25708007812,330.0,8457.0,-4288.0,198102.0
74437.93969726562,331.0,8359.0,-4236.0,198154.0
74456.62231445312,332.0,8264.0,-4184.0,198206.0
74475.30493164062,333.0,8169.0,-4132.0,198258.0
74493.98754882812,334.0,8076.0,-4080.0,198310.0
74512.67016601562,335.0,7985.0,-4029.0,198361.0
74531.35278320312,336.0,7893.0,-3981.0,198409.0
74550.03540039062,337.0,7804.0,-3932.0,198458.0
74568.71801757812,338.0,7714.0,-3884.0,198506.0
74587.40063476562,339.0,7626.0,-3839.0,198551.0
74606.08325195312,340.0,7533.0,-3797.0,198593.0
74624.765625,341.0,7440.0,-3759.0,198631.0
74643.4482421875,342.0,7346.0,-3725.0,198665.0
74662.130859375,343.0,7254.0,-3692.0,198698.0
74680.8134765625,344.0,7163.0,-3657.0,198733.0
74699.49609375,345.0,7075.0,-3619.0,198771.0
74718.1787109375,346.0,6991.0,-3578.0,198812.0
74736.861328125,347.0,6910.0,-3534.0,198856.0
74755.5439453125,348.0,6831.0,-3489.0,198901.0
74774.2265625,349.0,6754.0,-3444.0,198946.0
74792.9091796875,350.0,6679.0,-3398.0,198992.0
74811.591796875,351.0,6605.0,-3354.0,199036.0
74830.2744140625,352.0,6530.0,-3310.0,199080.0
74848.95678710938,353.0,6455.0,-3268.0,199122.0
74867.63940429688,354.0,6380.0,-3227.0,199163.0
74886.32202148438,355.0,6307.0,-3187.0,199203.0
74905.00463867188,356.0,6234.0,-3147.0,199243.0
74923.68725585938,357.0,6162.0,-3107.0,199283.0
74942.36987304688,358.0,6091.0,-3070.0,199320.0
74961.05249023438,359.0,6019.0,-3035.0,199355.0
74979.73510742188,360.0,5949.0,-3000.0,199390.0
74998.41772460938,361.0,5882.0,-2966.0,199424.0
75017.10034179688,362.0,5816.0,-2930.0,199460.0
75035.78295898438,363.0,5753.0,-2893.0,199497.0
75054.46557617188,364.0,5691.0,-2857.0,199533.0
75073.14794921875,365.0,5629.0,-2820.0,199570.0
75091.83056640625,366.0,5569.0,-2783.0,199607.0
75110.51318359375,367.0,5509.0,-2747.0,199643.0
75129.19580078125,368.0,5448.0,-2712.0,199678.0
75147.87841796875,369.0,5387.0,-2677.0,199713.0
75166.56103515625,370.0,5326.0,-2642.0,199748.0
75185.24365234375,371.0,5265.0,-2611.0,199779.0
75203.92626953125,372.0,5202.0,-2582.0,199808.0
75222.60888671875,373.0,5134.0,-2558.0,199832.0
75241.29150390625,374.0,5063.0,-2538.0,199852.0
75259.97412109375,375.0,4994.0,-2520.0,199870.0
75278.65673828125,376.0,4928.0,-2500.0,199890.0
75297.33935546875,377.0,4865.0,-2478.0,199912.0
75316.02172851562,378.0,4805.0,-2452.0,199938.0
75334.70434570312,379.0,4749.0,-2421.0,199969.0
75353.38696289062,380.0,4696.0,-2389.0,200001.0
75372.06958007812,381.0,4645.0,-2356.0,200034.0
75390.75219726562,382.0,4593.0,-2323.0,200067.0
75409.43481445312,383.0,4543.0,-2291.0,200099.0
75428.11743164062,384.0,4493.0,-2260.0,200130.0
75446.80004882812,385.0,4444.0,-2231.0,200159.0
75465.48266601562,386.0,4394.0,-2202.0,200188.0
75484.16528320312,387.0,4344.0,-2174.0,200216.0
75502.84790039062,388.0,4295.0,-2145.0,200245.0
75521.53051757812,389.0,4248.0,-2117.0,200273.0
75540.212890625,390.0,4199.0,-2090.0,200300.0
75558.8955078125,391.0,4150.0,-2065.0,200325.0
75577.578125,392.0,4100.0,-2041.0,200349.0
75596.2607421875,393.0,4051.0,-2018.0,200372.0
75614.943359375,394.0,4004.0,-1995.0,200395.0
75633.6259765625,395.0,3957.0,-1971.0,200419.0
75652.30859375,396.0,3912.0,-1947.0,200443.0
75670.9912109375,397.0,3868.0,-1922.0,200468.0
75689.673828125,398.0,3826.0,-1895.0,200495.0
75708.3564453125,399.0,3787.0,-1869.0,200521.0
75727.0390625,400.0,3746.0,-1844.0,200546.0
75745.7216796875,401.0,3705.0,-1820.0,200570.0
75764.404296875,402.0,3665.0,-1796.0,200594.0
75783.08666992188,403.0,3623.0,-1775.0,200615.0
75801.76928710938,404.0,3578.0,-1758.0,200632.0
75820.45190429688,405.0,3529.0,-1746.0,200644.0
75839.13452148438,406.0,3478.0,-1736.0,200654.0
75857.81713867188,407.0,3427.0,-1727.0,200663.0
75876.49975585938,408.0,3375.0,-1717.0,200673.0
75895.18237304688,409.0,3328.0,-1704.0,200686.0
75913.86499023438,410.0,3285.0,-1686.0,200704.0
75932.54760742188,411.0,3245.0,-1665.0,200725.0
75951.23022460938,412.0,3209.0,-1642.0,200748.0
75969.91284179688,413.0,3177.0,-1619.0,200771.0
75988.59545898438,414.0,3144.0,-1595.0,200795.0
76007.27783203125,415.0,3114.0,-1572.0,200818.0
76025.96044921875,416.0,3081.0,-1550.0,200840.0
76044.64306640625,417.0,3049.0,-1529.0,200861.0
76063.32568359375,418.0,3017.0,-1508.0,200882.0
76082.00830078125,419.0,2984.0,-1487.0,200903.0
76100.69091796875,420.0,2952.0,-1467.0,200923.0
76119.37353515625,421.0,2921.0,-1447.0,200943.0
76138.05615234375,422.0,2890.0,-1428.0,200962.0
76156.73876953125,423.0,2857.0,-1410.0,200980.0
76175.42138671875,424.0,2823.0,-1393.0,200997.0
76194.10400390625,425.0,2789.0,-1378.0,201012.0
76212.78662109375,426.0,2755.0,-1363.0,201027.0
76231.46899414062,427.0,2723.0,-1347.0,201043.0
76250.15161132812,428.0,2693.0,-1329.0,201061.0
76268.83422851562,429.0,2664.0,-1310.0,201080.0
76287.51684570312,430.0,2636.0,-1291.0,201099.0
76306.19946289062,431.0,2608.0,-1272.0,201118.0
76324.88208007812,432.0,2580.0,-1255.0,201135.0
76343.56469726562,433.0,2549.0,-1238.0,201152.0
76362.24731445312,434.0,2520.0,-1225.0,201165.0
76380.92993164062,435.0,2490.0,-1211.0,201179.0
76399.61254882812,436.0,2461.0,-1198.0,201192.0
76418.29516601562,437.0,2430.0,-1188.0,201202.0
76436.97778320312,438.0,2397.0,-1182.0,201208.0
76455.66040039062,439.0,2361.0,-1180.0,201210.0
76474.3427734375,440.0,2324.0,-1179.0,201211.0
76493.025390625,441.0,2288.0,-1174.0,201216.0
76511.7080078125,442.0,2252.0,-1166.0,201224.0
76530.390625,443.0,2217.0,-1154.0,201236.0
76549.0732421875,444.0,2185.0,-1141.0,201249.0
76567.755859375,445.0,2157.0,-1124.0,201266.0
76586.4384765625,446.0,2135.0,-1106.0,201284.0
76605.12109375,447.0,2114.0,-1089.0,201301.0
76623.8037109375,448.0,2094.0,-1072.0,201318.0
76642.486328125,449.0,2074.0,-1056.0,201334.0
76661.1689453125,450.0,2054.0,-1041.0,201349.0
76679.8515625,451.0,2033.0,-1026.0,201364.0
76698.53393554688,452.0,2010.0,-1012.0,201378.0
76717.21655273438,453.0,1989.0,-997.0,201393.0
76735.89916992188,454.0,1966.0,-984.0,201406.0
76754.58178710938,455.0,1943.0,-971.0,201419.0
76773.26440429688,456.0,1919.0,-961.0,201429.0
76791.94702148438,457.0,1895.0,-951.0,201439.0
76810.62963867188,458.0,1869.0,-939.0,201451.0
76829.31225585938,459.0,1845.0,-929.0,201461.0
76847.99487304688,460.0,1823.0,-918.0,201472.0
76866.67749023438,461.0,1806.0,-905.0,201485.0
76885.36010742188,462.0,1791.0,-891.0,201499.0
76904.04272460938,463.0,1776.0,-877.0,201513.0
76922.72509765625,464.0,1758.0,-863.0,201527.0
76941.40771484375,465.0,1738.0,-851.0,201539.0
76960.09033203125,466.0,1717.0,-839.0,201551.0
76978.77294921875,467.0,1695.0,-828.0,201562.0
76997.45556640625,468.0,1674.0,-818.0,201572.0
77016.13818359375,469.0,1654.0,-807.0,201583.0
77034.82080078125,470.0,1637.0,-797.0,201593.0
77053.50341796875,471.0,1620.0,-786.0,201604.0
77072.18603515625,472.0,1604.0,-776.0,201614.0
77090.86865234375,473.0,1588.0,-766.0,201624.0
77109.55126953125,474.0,1572.0,-756.0,201634.0
77128.23388671875,475.0,1555.0,-747.0,201643.0
77146.91650390625,476.0,1535.0,-743.0,201647.0
77165.59887695312,477.0,1508.0,-745.0,201645.0
77184.28149414062,478.0,1477.0,-748.0,201642.0
77202.96411132812,479.0,1447.0,-751.0,201639.0
77221.64672851562,480.0,1419.0,-751.0,201639.0
77240.32934570312,481.0,1397.0,-747.0,201643.0
77259.01196289062,482.0,1381.0,-738.0,201652.0
77277.69458007812,483.0,1367.0,-726.0,201664.0
77296.37719726562,484.0,1356.0,-714.0,201676.0
77315.05981445312,485.0,1348.0,-700.0,201690.0
77333.74243164062,486.0,1342.0,-685.0,201705.0
77352.42504882812,487.0,1337.0,-669.0,201721.0
77371.10766601562,488.0,1331.0,-656.0,201734.0
77389.7900390625,489.0,1324.0,-646.0,201744.0
77408.47265625,490.0,1315.0,-635.0,201755.0
77427.1552734375,491.0,1302.0,-627.0,201763.0
77445.837890625,492.0,1288.0,-618.0,201772.0
77464.5205078125,493.0,1271.0,-610.0,201780.0
77483.203125,494.0,1254.0,-603.0,201787.0
77501.8857421875,495.0,1235.0,-597.0,201793.0
77520.568359375,496.0,1217.0,-591.0,201799.0
77539.2509765625,497.0,1200.0,-585.0,201805.0
77557.93359375,498.0,1186.0,-577.0,201813.0
77576.6162109375,499.0,1176.0,-568.0,201822.0
77595.298828125,500.0,1164.0,-558.0,201832.0
77613.98120117188,501.0,1152.0,-549.0,201841.0
77632.66381835938,502.0,1141.0,-540.0,201850.0
77651.34643554688,503.0,1130.0,-531.0,201859.0
77670.02905273438,504.0,1120.0,-524.0,201866.0
77688.71166992188,505.0,1111.0,-517.0,201873.0
77707.39428710938,506.0,1101.0,-510.0,201880.0
77726.07690429688,507.0,1090.0,-504.0,201886.0
77744.75952148438,508.0,1077.0,-497.0,201893.0
77763.44213867188,509.0,1064.0,-491.0,201899.0
77782.12475585938,510.0,1050.0,-485.0,201905.0
77800.80737304688,511.0,1038.0,-481.0,201909.0
77819.48999023438,512.0,1026.0,-476.0,201914.0
77838.17260742188,513.0,1015.0,-471.0,201919.0
77856.85498046875,514.0,1004.0,-468.0,201922.0
77875.53759765625,515.0,992.0,-464.0,201926.0
77894.22021484375,516.0,981.0,-461.0,201929.0
77912.90283203125,517.0,968.0,-459.0,201931.0
77931.58544921875,518.0,950.0,-463.0,201927.0
77950.26806640625,519.0,926.0,-469.0,201921.0
77968.95068359375,520.0,901.0,-475.0,201915.0
77987.63330078125,521.0,877.0,-479.0,201911.0
78006.31591796875,522.0,858.0,-479.0,201911.0
78024.99853515625,523.0,844.0,-474.0,201916.0
78043.68115234375,524.0,832.0,-467.0,201923.0
78062.36376953125,525.0,822.0,-457.0,201933.0
78081.04614257812,526.0,815.0,-448.0,201942.0
78099.72875976562,527.0,808.0,-439.0,201951.0
78118.41137695312,528.0,802.0,-430.0,201960.0
78137.09399414062,529.0,792.0,-422.0,201968.0
78155.77661132812,530.0,783.0,-416.0,201974.0
78174.45922851562,531.0,774.0,-410.0,201980.0
78193.14184570312,532.0,766.0,-405.0,201985.0
78211.82446289062,533.0,760.0,-398.0,201992.0
78230.50708007812,534.0,754.0,-391.0,201999.0
78249.18969726562,535.0,748.0,-386.0,202004.0
78267.87231445312,536.0,741.0,-380.0,202010.0
78286.55493164062,537.0,733.0,-376.0,202014.0
78305.23754882812,538.0,723.0,-372.0,202018.0
78323.919921875,539.0,713.0,-368.0,202022.0
78342.6025390625,540.0,704.0,-364.0,202026.0
78361.28515625,541.0,696.0,-360.0,202030.0
78379.9677734375,542.0,690.0,-354.0,202036.0
78398.650390625,543.0,686.0,-347.0,202043.0
78417.3330078125,544.0,682.0,-340.0,202050.0
78436.015625,545.0,677.0,-334.0,202056.0
78454.6982421875,546.0,671.0,-327.0,202063.0
78473.380859375,547.0,665.0,-321.0,202069.0
78492.0634765625,548.0,659.0,-316.0,202074.0
78510.74609375,549.0,652.0,-309.0,202081.0
78529.4287109375,550.0,645.0,-303.0,202087.0
78548.11108398438,551.0,637.0,-298.0,202092.0
78566.79370117188,552.0,631.0,-292.0,202098.0
78585.47631835938,553.0,625.0,-286.0,202104.0
78604.15893554688,554.0,620.0,-281.0,202109.0
78622.84155273438,555.0,613.0,-280.0,202110.0
78641.52416992188,556.0,600.0,-284.0,202106.0
78660.20678710938,557.0,582.0,-291.0,202099.0
78678.88940429688,558.0,560.0,-301.0,202089.0
78697.57202148438,559.0,541.0,-310.0,202080.0
78716.25463867188,560.0,526.0,-315.0,202075.0
78734.93725585938,561.0,515.0,-316.0,202074.0
78753.61987304688,562.0,508.0,-314.0,202076.0
78772.30224609375,563.0,504.0,-309.0,202081.0
78790.98486328125,564.0,502.0,-301.0,202089.0
78809.66748046875,565.0,504.0,-292.0,202098.0
78828.35009765625,566.0,505.0,-283.0,202107.0
78847.03271484375,567.0,506.0,-276.0,202114.0
78865.71533203125,568.0,505.0,-270.0,202120.0
78884.39794921875,569.0,502.0,-265.0,202125.0
78903.08056640625,570.0,499.0,-261.0,202129.0
78921.76318359375,571.0,497.0,-256.0,202134.0
78940.44580078125,572.0,494.0,-250.0,202140.0
78959.12841796875,573.0,493.0,-244.0,202146.0
78977.81103515625,574.0,490.0,-240.0,202150.0
78996.49365234375,575.0,485.0,-238.0,202152.0
79015.17602539062,576.0,480.0,-236.0,202154.0
79033.85864257812,577.0,475.0,-234.0,202156.0
79052.54125976562,578.0,472.0,-232.0,202158.0
79071.22387695312,579.0,471.0,-229.0,202161.0
79089.90649414062,580.0,470.0,-226.0,202164.0
79108.58911132812,581.0,469.0,-221.0,202169.0
79127.27172851562,582.0,467.0,-216.0,202174.0
79145.95434570312,583.0,464.0,-208.0,202182.0
79164.63696289062,584.0,462.0,-201.0,202189.0
79183.31958007812,585.0,459.0,-193.0,202197.0
79202.00219726562,586.0,456.0,-188.0,202202.0
79220.68481445312,587.0,453.0,-184.0,202206.0
79239.3671875,588.0,448.0,-182.0,202208.0
79258.0498046875,589.0,444.0,-180.0,202210.0
79276.732421875,590.0,441.0,-176.0,202214.0
79295.4150390625,591.0,437.0,-172.0,202218.0
79314.09765625,592.0,433.0,-169.0,202221.0
79332.7802734375,593.0,429.0,-165.0,202225.0
79351.462890625,594.0,426.0,-162.0,202228.0
79370.1455078125,595.0,422.0,-160.0,202230.0
79388.828125,596.0,418.0,-157.0,202233.0
79407.5107421875,597.0,410.0,-156.0,202234.0
79426.193359375,598.0,397.0,-161.0,202229.0
79444.8759765625,599.0,381.0,-171.0,202219.0
79463.55834960938,600.0,366.0,-183.0,202207.0
79482.24096679688,601.0,351.0,-194.0,202196.0
79500.92358398438,602.0,338.0,-202.0,202188.0
79519.60620117188,603.0,329.0,-204.0,202186.0
79538.28881835938,604.0,324.0,-202.0,202188.0
79556.97143554688,605.0,321.0,-196.0,202194.0
79575.65405273438,606.0,320.0,-188.0,202202.0
79594.33666992188,607.0,320.0,-179.0,202211.0
79613.01928710938,608.0,322.0,-170.0,202220.0
79631.70190429688,609.0,326.0,-161.0,202229.0
79650.38452148438,610.0,329.0,-154.0,202236.0
79669.06713867188,611.0,331.0,-149.0,202241.0
79687.74975585938,612.0,331.0,-143.0,202247.0
79706.43212890625,613.0,328.0,-139.0,202251.0
79725.11474609375,614.0,325.0,-134.0,202256.0
79743.79736328125,615.0,321.0,-131.0,202259.0
79762.47998046875,616.0,315.0,-130.0,202260.0
79781.16259765625,617.0,309.0,-131.0,202259.0
79799.84521484375,618.0,304.0,-135.0,202255.0
79818.52783203125,619.0,298.0,-137.0,202253.0
79837.21044921875,620.0,295.0,-139.0,202251.0
79855.89306640625,621.0,291.0,-137.0,202253.0
79874.57568359375,622.0,289.0,-134.0,202256.0
79893.25830078125,623.0,286.0,-131.0,202259.0
79911.94091796875,624.0,285.0,-128.0,202262.0
79930.62329101562,625.0,282.0,-125.0,202265.0
79949.30590820312,626.0,278.0,-121.0,202269.0
79967.98852539062,627.0,274.0,-117.0,202273.0
79986.67114257812,628.0,272.0,-114.0,202276.0
80005.35375976562,629.0,271.0,-109.0,202281.0
80024.03637695312,630.0,271.0,-105.0,202285.0
80042.71899414062,631.0,269.0,-103.0,202287.0
80061.40161132812,632.0,268.0,-102.0,202288.0
80080.08422851562,633.0,268.0,-100.0,202290.0
80098.76684570312,634.0,268.0,-98.0,202292.0
80117.44946289062,635.0,267.0,-95.0,202295.0
80136.13208007812,636.0,264.0,-92.0,202298.0
80154.81469726562,637.0,260.0,-90.0,202300.0
80173.4970703125,638.0,256.0,-88.0,202302.0
80192.1796875,639.0,253.0,-87.0,202303.0
80210.8623046875,640.0,248.0,-87.0,202303.0
80229.544921875,641.0,241.0,-89.0,202301.0
80248.2275390625,642.0,230.0,-96.0,202294.0
80266.91015625,643.0,217.0,-105.0,202285.0
80285.5927734375,644.0,204.0,-116.0,202274.0
80304.275390625,645.0,193.0,-126.0,202264.0
80322.9580078125,646.0,187.0,-131.0,202259.0
80341.640625,647.0,185.0,-133.0,202257.0
80360.3232421875,648.0,185.0,-131.0,202259.0
80379.005859375,649.0,184.0,-128.0,202262.0
80397.68823242188,650.0,181.0,-122.0,202268.0
80416.37084960938,651.0,178.0,-116.0,202274.0
80435.05346679688,652.0,175.0,-110.0,202280.0
80453.73608398438,653.0,172.0,-106.0,202284.0
80472.41870117188,654.0,170.0,-103.0,202287.0
80491.10131835938,655.0,169.0,-100.0,202290.0
80509.78393554688,656.0,169.0,-98.0,202292.0
80528.46655273438,657.0,170.0,-95.0,202295.0
80547.14916992188,658.0,169.0,-94.0,202296.0
80565.83178710938,659.0,167.0,-93.0,202297.0
80584.51440429688,660.0,164.0,-94.0,202296.0
80603.19702148438,661.0,160.0,-97.0,202293.0
80621.87939453125,662.0,156.0,-100.0,202290.0
80640.56201171875,663.0,153.0,-101.0,202289.0
80659.24462890625,664.0,149.0,-100.0,202290.0
80677.92724609375,665.0,144.0,-100.0,202290.0
80696.60986328125,666.0,139.0,-99.0,202291.0
80715.29248046875,667.0,136.0,-98.0,202292.0
80733.97509765625,668.0,135.0,-97.0,202293.0
80752.65771484375,669.0,136.0,-95.0,202295.0
80771.34033203125,670.0,138.0,-90.0,202300.0
80790.02294921875,671.0,139.0,-87.0,202303.0
80808.70556640625,672.0,139.0,-83.0,202307.0
80827.38818359375,673.0,138.0,-80.0,202310.0
80846.07080078125,674.0,137.0,-77.0,202313.0
80864.75317382812,675.0,135.0,-76.0,202314.0
80883.43579101562,676.0,133.0,-73.0,202317.0
80902.11840820312,677.0,133.0,-71.0,202319.0
80920.80102539062,678.0,133.0,-69.0,202321.0
80939.48364257812,679.0,135.0,-67.0,202323.0
80958.16625976562,680.0,135.0,-66.0,202324.0
80976.84887695312,681.0,135.0,-66.0,202324.0
80995.53149414062,682.0,133.0,-65.0,202325.0
81014.21411132812,683.0,131.0,-64.0,202326.0
81032.89672851562,684.0,128.0,-65.0,202325.0
81051.57934570312,685.0,123.0,-69.0,202321.0
81070.26196289062,686.0,115.0,-77.0,202313.0
81088.9443359375,687.0,104.0,-88.0,202302.0
81107.626953125,688.0,90.0,-100.0,202290.0
81126.3095703125,689.0,78.0,-110.0,202280.0
81144.9921875,690.0,69.0,-116.0,202274.0
81163.6748046875,691.0,67.0,-118.0,202272.0
81182.357421875,692.0,68.0,-117.0,202273.0
81201.0400390625,693.0,72.0,-112.0,202278.0
81219.72265625,694.0,78.0,-106.0,202284.0
81238.4052734375,695.0,84.0,-99.0,202291.0
81257.087890625,696.0,91.0,-91.0,202299.0
81275.7705078125,697.0,96.0,-86.0,202304.0
81294.453125,698.0,98.0,-81.0,202309.0
81313.13549804688,699.0,99.0,-78.0,202312.0
81331.81811523438,700.0,98.0,-76.0,202314.0
81350.50073242188,701.0,97.0,-76.0,202314.0
81369.18334960938,702.0,95.0,-74.0,202316.0
81387.86596679688,703.0,92.0,-73.0,202317.0
81406.54858398438,704.0,85.0,-74.0,202316.0
81425.23120117188,705.0,77.0,-78.0,202312.0
81443.91381835938,706.0,71.0,-82.0,202308.0
81462.59643554688,707.0,66.0,-85.0,202305.0
81481.27905273438,708.0,63.0,-86.0,202304.0
81499.96166992188,709.0,64.0,-85.0,202305.0
81518.64428710938,710.0,68.0,-82.0,202308.0
81537.32690429688,711.0,75.0,-78.0,202312.0
81556.00927734375,712.0,81.0,-73.0,202317.0
81574.69189453125,713.0,87.0,-69.0,202321.0
81593.37451171875,714.0,91.0,-65.0,202325.0
81612.05712890625,715.0,93.0,-61.0,202329.0
81630.73974609375,716.0,95.0,-57.0,202333.0
81649.42236328125,717.0,97.0,-52.0,202338.0
81668.10498046875,718.0,97.0,-49.0,202341.0
81686.78759765625,719.0,96.0,-46.0,202344.0
81705.47021484375,720.0,94.0,-45.0,202345.0
81724.15283203125,721.0,93.0,-43.0,202347.0
81742.83544921875,722.0,91.0,-42.0,202348.0
81761.51806640625,723.0,90.0,-41.0,202349.0
81780.20043945312,724.0,88.0,-44.0,202346.0
81798.88305664062,725.0,81.0,-50.0,202340.0
81817.56567382812,726.0,73.0,-61.0,202329.0
81836.24829101562,727.0,64.0,-72.0,202318.0
81854.93090820312,728.0,57.0,-81.0,202309.0
81873.61352539062,729.0,53.0,-87.0,202303.0
81892.29614257812,730.0,52.0,-88.0,202302.0
81910.97875976562,731.0,53.0,-85.0,202305.0
81929.66137695312,732.0,56.0,-80.0,202310.0
81948.34399414062,733.0,59.0,-73.0,202317.0
81967.02661132812,734.0,64.0,-67.0,202323.0
81985.70922851562,735.0,67.0,-60.0,202330.0
82004.39184570312,736.0,70.0,-56.0,202334.0
82023.07421875,737.0,73.0,-50.0,202340.0
82041.7568359375,738.0,75.0,-45.0,202345.0
82060.439453125,739.0,77.0,-41.0,202349.0
82079.1220703125,740.0,79.0,-37.0,202353.0
82097.8046875,741.0,79.0,-37.0,202353.0
82116.4873046875,742.0,78.0,-39.0,202351.0
82135.169921875,743.0,74.0,-41.0,202349.0
82153.8525390625,744.0,70.0,-45.0,202345.0
82172.53515625,745.0,65.0,-48.0,202342.0
82191.2177734375,746.0,60.0,-49.0,202341.0
82209.900390625,747.0,59.0,-50.0,202340.0
82228.5830078125,748.0,58.0,-48.0,202342.0
82247.26538085938,749.0,58.0,-46.0,202344.0
82265.94799804688,750.0,60.0,-43.0,202347.0
82284.63061523438,751.0,62.0,-41.0,202349.0
82303.31323242188,752.0,63.0,-37.0,202353.0
82321.99584960938,753.0,63.0,-34.0,202356.0
82340.67846679688,754.0,63.0,-31.0,202359.0
82359.36108398438,755.0,62.0,-29.0,202361.0
82378.04370117188,756.0,62.0,-26.0,202364.0
82396.72631835938,757.0,64.0,-23.0,202367.0
82415.40893554688,758.0,64.0,-22.0,202368.0
82434.09155273438,759.0,64.0,-22.0,202368.0
82452.77416992188,760.0,62.0,-22.0,202368.0
82471.45654296875,761.0,62.0,-22.0,202368.0
82490.13916015625,762.0,60.0,-22.0,202368.0
82508.82177734375,763.0,58.0,-23.0,202367.0
82527.50439453125,764.0,57.0,-25.0,202365.0
82546.18701171875,765.0,52.0,-31.0,202359.0
82564.86962890625,766.0,44.0,-39.0,202351.0
82583.55224609375,767.0,36.0,-49.0,202341.0
82602.23486328125,768.0,27.0,-59.0,202331.0
82620.91748046875,769.0,22.0,-65.0,202325.0
82639.60009765625,770.0,21.0,-68.0,202322.0
82658.28271484375,771.0,22.0,-67.0,202323.0
82676.96533203125,772.0,24.0,-64.0,202326.0
82695.64794921875,773.0,27.0,-59.0,202331.0
82714.33032226562,774.0,30.0,-52.0,202338.0
82733.01293945312,775.0,33.0,-45.0,202345.0
82751.69555664062,776.0,38.0,-39.0,202351.0
82770.37817382812,777.0,42.0,-34.0,202356.0
82789.06079101562,778.0,44.0,-28.0,202362.0
82807.74340820312,779.0,48.0,-25.0,202365.0
82826.42602539062,780.0,52.0,-22.0,202368.0
82845.10864257812,781.0,53.0,-21.0,202369.0
82863.79125976562,782.0,54.0,-22.0,202368.0
82882.47387695312,783.0,50.0,-25.0,202365.0
82901.15649414062,784.0,47.0,-29.0,202361.0
82919.83911132812,785.0,43.0,-32.0,202358.0
82938.521484375,786.0,41.0,-35.0,202355.0
82957.2041015625,787.0,38.0,-37.0,202353.0
82975.88671875,788.0,36.0,-38.0,202352.0
82994.5693359375,789.0,33.0,-37.0,202353.0
83013.251953125,790.0,32.0,-36.0,202354.0
83031.9345703125,791.0,30.0,-34.0,202356.0
83050.6171875,792.0,29.0,-32.0,202358.0
83069.2998046875,793.0,28.0,-30.0,202360.0
83087.982421875,794.0,28.0,-28.0,202362.0
83106.6650390625,795.0,29.0,-27.0,202363.0
83125.34765625,796.0,31.0,-26.0,202364.0
83144.0302734375,797.0,31.0,-25.0,202365.0
83162.71264648438,798.0,32.0,-22.0,202368.0
83181.39526367188,799.0,33.0,-20.0,202370.0
83200.07788085938,800.0,32.0,-18.0,202372.0
83218.76049804688,801.0,32.0,-16.0,202374.0
83237.44311523438,802.0,31.0,-13.0,202377.0
83256.12573242188,803.0,31.0,-12.0,202378.0
83274.80834960938,804.0,30.0,-11.0,202379.0
83293.49096679688,805.0,26.0,-13.0,202377.0
83312.17358398438,806.0,17.0,-19.0,202371.0
83330.85620117188,807.0,6.0,-29.0,202361.0
83349.53881835938,808.0,-4.0,-41.0,202349.0
83368.22143554688,809.0,-14.0,-52.0,202338.0
83386.90405273438,810.0,-20.0,-59.0,202331.0
83405.58642578125,811.0,-23.0,-63.0,202327.0
83424.26904296875,812.0,-20.0,-64.0,202326.0
83442.95166015625,813.0,-15.0,-61.0,202329.0
83461.63427734375,814.0,-9.0,-56.0,202334.0
83480.31689453125,815.0,-1.0,-50.0,202340.0
83498.99951171875,816.0,5.0,-44.0,202346.0
83517.68212890625,817.0,10.0,-37.0,202353.0
83536.36474609375,818.0,13.0,-32.0,202358.0
83555.04736328125,819.0,16.0,-27.0,202363.0
83573.72998046875,820.0,19.0,-22.0,202368.0
83592.41259765625,821.0,20.0,-19.0,202371.0
83611.09521484375,822.0,19.0,-18.0,202372.0
83629.77758789062,823.0,17.0,-18.0,202372.0
83648.46020507812,824.0,16.0,-19.0,202371.0
83667.14282226562,825.0,16.0,-21.0,202369.0
83685.82543945312,826.0,18.0,-24.0,202366.0
83704.50805664062,827.0,21.0,-26.0,202364.0
83723.19067382812,828.0,24.0,-26.0,202364.0
83741.87329101562,829.0,27.0,-26.0,202364.0
83760.55590820312,830.0,28.0,-26.0,202364.0
83779.23852539062,831.0,29.0,-24.0,202366.0
83797.92114257812,832.0,30.0,-22.0,202368.0
83816.60375976562,833.0,29.0,-20.0,202370.0
83835.28637695312,834.0,29.0,-19.0,202371.0
83853.96875,835.0,30.0,-16.0,202374.0
83872.6513671875,836.0,31.0,-16.0,202374.0
83891.333984375,837.0,34.0,-15.0,202375.0
83910.0166015625,838.0,36.0,-14.0,202376.0
83928.69921875,839.0,38.0,-13.0,202377.0
83947.3818359375,840.0,40.0,-9.0,202381.0
83966.064453125,841.0,40.0,-7.0,202383.0
83984.7470703125,842.0,40.0,-4.0,202386.0
84003.4296875,843.0,39.0,-3.0,202387.0
84022.1123046875,844.0,39.0,-3.0,202387.0
84040.794921875,845.0,39.0,-2.0,202388.0
84059.4775390625,846.0,39.0,-2.0,202388.0
84078.16015625,847.0,39.0,-3.0,202387.0
84096.84252929688,848.0,35.0,-6.0,202384.0
84115.52514648438,849.0,29.0,-13.0,202377.0
84134.20776367188,850.0,18.0,-22.0,202368.0
84152.89038085938,851.0,7.0,-31.0,202359.0
84171.57299804688,852.0,-4.0,-41.0,202349.0
84190.25561523438,853.0,-12.0,-48.0,202342.0
84208.93823242188,854.0,-16.0,-50.0,202340.0
84227.62084960938,855.0,-14.0,-50.0,202340.0
84246.30346679688,856.0,-9.0,-47.0,202343.0
84264.98608398438,857.0,-2.0,-41.0,202349.0
84283.66870117188,858.0,4.0,-35.0,202355.0
84302.35131835938,859.0,6.0,-28.0,202362.0
84321.03369140625,860.0,6.0,-23.0,202367.0
84339.71630859375,861.0,5.0,-20.0,202370.0
84358.39892578125,862.0,4.0,-18.0,202372.0
84377.08154296875,863.0,3.0,-15.0,202375.0
84395.76416015625,864.0,2.0,-15.0,202375.0
84414.44677734375,865.0,1.0,-15.0,202375.0
84433.12939453125,866.0,-1.0,-17.0,202373.0
84451.81201171875,867.0,-3.0,-20.0,202370.0
84470.49462890625,868.0,-4.0,-23.0,202367.0
84489.17724609375,869.0,-3.0,-26.0,202364.0
84507.85986328125,870.0,1.0,-28.0,202362.0
84526.54248046875,871.0,5.0,-27.0,202363.0
84545.22509765625,872.0,10.0,-27.0,202363.0
84563.90747070312,873.0,15.0,-26.0,202364.0
84582.59008789062,874.0,18.0,-23.0,202367.0
84601.27270507812,875.0,19.0,-20.0,202370.0
84619.95532226562,876.0,19.0,-16.0,202374.0
84638.63793945312,877.0,19.0,-13.0,202377.0
84657.32055664062,878.0,20.0,-11.0,202379.0
84676.00317382812,879.0,21.0,-9.0,202381.0
84694.68579101562,880.0,23.0,-8.0,202382.0
84713.36840820312,881.0,27.0,-8.0,202382.0
84732.05102539062,882.0,30.0,-7.0,202383.0
84750.73364257812,883.0,33.0,-6.0,202384.0
84769.41625976562,884.0,35.0,-4.0,202386.0
84788.0986328125,885.0,33.0,-3.0,202387.0
84806.78125,886.0,29.0,-3.0,202387.0
84825.4638671875,887.0,22.0,-6.0,202384.0
84844.146484375,888.0,12.0,-12.0,202378.0
84862.8291015625,889.0,1.0,-22.0,202368.0
84881.51171875,890.0,-12.0,-31.0,202359.0
84900.1943359375,891.0,-24.0,-41.0,202349.0
84918.876953125,892.0,-33.0,-49.0,202341.0
84937.5595703125,893.0,-38.0,-52.0,202338.0
84956.2421875,894.0,-37.0,-51.0,202339.0
84974.9248046875,895.0,-33.0,-47.0,202343.0
84993.607421875,896.0,-27.0,-41.0,202349.0
85012.28979492188,897.0,-20.0,-35.0,202355.0
85030.97241210938,898.0,-14.0,-27.0,202363.0
85049.65502929688,899.0,-9.0,-22.0,202368.0
85068.33764648438,900.0,-5.0,-18.0,202372.0
85087.02026367188,901.0,0.0,-13.0,202377.0
85105.70288085938,902.0,2.0,-11.0,202379.0
85124.38549804688,903.0,3.0,-10.0,202380.0
85143.06811523438,904.0,3.0,-10.0,202380.0
85161.75073242188,905.0,2.0,-12.0,202378.0
85180.43334960938,906.0,-1.0,-15.0,202375.0
85199.11596679688,907.0,-5.0,-19.0,202371.0
85217.79858398438,908.0,-10.0,-23.0,202367.0
85236.48120117188,909.0,-14.0,-27.0,202363.0
85255.16357421875,910.0,-13.0,-29.0,202361.0
85273.84619140625,911.0,-12.0,-29.0,202361.0
85292.52880859375,912.0,-9.0,-28.0,202362.0
85311.21142578125,913.0,-5.0,-26.0,202364.0
85329.89404296875,914.0,1.0,-23.0,202367.0
85348.57666015625,915.0,7.0,-20.0,202370.0
85367.25927734375,916.0,12.0,-17.0,202373.0
85385.94189453125,917.0,17.0,-14.0,202376.0
85404.62451171875,918.0,21.0,-11.0,202379.0
85423.30712890625,919.0,22.0,-9.0,202381.0
85441.98974609375,920.0,22.0,-7.0,202383.0
85460.67236328125,921.0,20.0,-6.0,202384.0
85479.35473632812,922.0,19.0,-6.0,202384.0
85498.03735351562,923.0,18.0,-6.0,202384.0
85516.71997070312,924.0,20.0,-6.0,202384.0
85535.40258789062,925.0,22.0,-5.0,202385.0
85554.08520507812,926.0,22.0,-5.0,202385.0
85572.76782226562,927.0,19.0,-6.0,202384.0
85591.45043945312,928.0,16.0,-8.0,202382.0
85610.13305664062,929.0,10.0,-13.0,202377.0
85628.81567382812,930.0,4.0,-19.0,202371.0
85647.49829101562,931.0,-4.0,-28.0,202362.0
85666.18090820312,932.0,-12.0,-37.0,202353.0
85684.86352539062,933.0,-18.0,-42.0,202348.0
85703.5458984375,934.0,-21.0,-44.0,202346.0
85722.228515625,935.0,-20.0,-41.0,202349.0
85740.9111328125,936.0,-16.0,-38.0,202352.0
85759.59375,937.0,-10.0,-32.0,202358.0
85778.2763671875,938.0,-5.0,-27.0,202363.0
85796.958984375,939.0,-1.0,-23.0,202367.0
85815.6416015625,940.0,1.0,-19.0,202371.0
85834.32421875,941.0,5.0,-15.0,202375.0
85853.0068359375,942.0,9.0,-11.0,202379.0
85871.689453125,943.0,13.0,-8.0,202382.0
85890.3720703125,944.0,15.0,-5.0,202385.0
85909.0546875,945.0,16.0,-5.0,202385.0
85927.7373046875,946.0,14.0,-7.0,202383.0
85946.41967773438,947.0,9.0,-10.0,202380.0
85965.10229492188,948.0,4.0,-13.0,202377.0
85983.78491210938,949.0,-1.0,-16.0,202374.0
86002.46752929688,950.0,-4.0,-19.0,202371.0
86021.15014648438,951.0,-5.0,-22.0,202368.0
86039.83276367188,952.0,-4.0,-23.0,202367.0
86058.51538085938,953.0,-1.0,-22.0,202368.0
86077.19799804688,954.0,3.0,-21.0,202369.0
86095.88061523438,955.0,9.0,-19.0,202371.0
86114.56323242188,956.0,13.0,-16.0,202374.0
86133.24584960938,957.0,17.0,-11.0,202379.0
86151.92846679688,958.0,22.0,-8.0,202382.0
86170.61083984375,959.0,26.0,-4.0,202386.0
86189.29345703125,960.0,28.0,-3.0,202387.0
86207.97607421875,961.0,28.0,-2.0,202388.0
86226.65869140625,962.0,27.0,-3.0,202387.0
86245.34130859375,963.0,25.0,-3.0,202387.0
86264.02392578125,964.0,24.0,-1.0,202389.0
86282.70654296875,965.0,24.0,0.0,202390.0
86301.38916015625,966.0,24.0,2.0,202392.0
86320.07177734375,967.0,23.0,4.0,202394.0
86338.75439453125,968.0,26.0,5.0,202395.0
86357.43701171875,969.0,31.0,6.0,202396.0
86376.11962890625,970.0,35.0,6.0,202396.0
86394.80224609375,971.0,37.0,4.0,202394.0
86413.48461914062,972.0,36.0,-2.0,202388.0
86432.16723632812,973.0,30.0,-9.0,202381.0
86450.84985351562,974.0,24.0,-17.0,202373.0
86469.53247070312,975.0,19.0,-23.0,202367.0
86488.21508789062,976.0,16.0,-28.0,202362.0
86506.89770507812,977.0,15.0,-29.0,202361.0
86525.58032226562,978.0,15.0,-28.0,202362.0
86544.26293945312,979.0,16.0,-25.0,202365.0
86562.94555664062,980.0,20.0,-20.0,202370.0
86581.62817382812,981.0,24.0,-15.0,202375.0
86600.31079101562,982.0,31.0,-10.0,202380.0
86618.99340820312,983.0,36.0,-6.0,202384.0
86637.67578125,984.0,38.0,-2.0,202388.0
86656.3583984375,985.0,40.0,0.0,202390.0
86675.041015625,986.0,39.0,2.0,202392.0
86693.7236328125,987.0,36.0,2.0,202392.0
86712.40625,988.0,31.0,0.0,202390.0
86731.0888671875,989.0,23.0,-4.0,202386.0
86749.771484375,990.0,16.0,-9.0,202381.0
86768.4541015625,991.0,11.0,-13.0,202377.0
86787.13671875,992.0,9.0,-16.0,202374.0
86805.8193359375,993.0,8.0,-19.0,202371.0
86824.501953125,994.0,7.0,-22.0,202368.0
86843.1845703125,995.0,8.0,-23.0,202367.0
86861.86694335938,996.0,10.0,-22.0,202368.0
86880.54956054688,997.0,14.0,-20.0,202370.0
86899.23217773438,998.0,20.0,-17.0,202373.0
86917.91479492188,999.0,27.0,-15.0,202375.0
86936.59741210938,1000.0,30.0,-13.0,202377.0
86955.28002929688,1001.0,32.0,-9.0,202381.0
86973.96264648438,1002.0,34.0,-6.0,202384.0
86992.64526367188,1003.0,33.0,-4.0,202386.0
87011.32788085938,1004.0,34.0,-2.0,202388.0
87030.01049804688,1005.0,35.0,-2.0,202388.0
87048.69311523438,1006.0,36.0,-1.0,202389.0
87067.37573242188,1007.0,37.0,1.0,202391.0
87086.05834960938,1008.0,36.0,3.0,202393.0
87104.74072265625,1009.0,36.0,4.0,202394.0
87123.42333984375,1010.0,37.0,6.0,202396.0
87142.10595703125,1011.0,37.0,7.0,202397.0
87160.78857421875,1012.0,38.0,8.0,202398.0
87179.47119140625,1013.0,37.0,9.0,202399.0
87198.15380859375,1014.0,37.0,10.0,202400.0
87216.83642578125,1015.0,34.0,8.0,202398.0
87235.51904296875,1016.0,30.0,3.0,202393.0
87254.20166015625,1017.0,23.0,-5.0,202385.0
87272.88427734375,1018.0,15.0,-14.0,202376.0
87291.56689453125,1019.0,7.0,-23.0,202367.0
87310.24951171875,1020.0,0.0,-32.0,202358.0
87328.93188476562,1021.0,-4.0,-37.0,202353.0
87347.61450195312,1022.0,-4.0,-37.0,202353.0
87366.29711914062,1023.0,-2.0,-37.0,202353.0
87384.97973632812,1024.0,2.0,-34.0,202356.0
87403.66235351562,1025.0,7.0,-29.0,202361.0
87422.34497070312,1026.0,12.0,-24.0,202366.0
87441.02758789062,1027.0,17.0,-17.0,202373.0
87459.71020507812,1028.0,20.0,-11.0,202379.0
87478.39282226562,1029.0,22.0,-7.0,202383.0
87497.07543945312,1030.0,22.0,-4.0,202386.0
87515.75805664062,1031.0,22.0,-3.0,202387.0
87534.44067382812,1032.0,20.0,-4.0,202386.0
87553.123046875,1033.0,17.0,-7.0,202383.0
87571.8056640625,1034.0,12.0,-11.0,202379.0
87590.48828125,1035.0,9.0,-16.0,202374.0
87609.1708984375,1036.0,7.0,-19.0,202371.0
87627.853515625,1037.0,6.0,-22.0,202368.0
87646.5361328125,1038.0,5.0,-25.0,202365.0
87665.21875,1039.0,6.0,-26.0,202364.0
87683.9013671875,1040.0,7.0,-24.0,202366.0
87702.583984375,1041.0,10.0,-21.0,202369.0
87721.2666015625,1042.0,14.0,-18.0,202372.0
87739.94921875,1043.0,19.0,-14.0,202376.0
87758.6318359375,1044.0,22.0,-9.0,202381.0
87777.314453125,1045.0,26.0,-5.0,202385.0
87795.99682617188,1046.0,28.0,-3.0,202387.0
87814.67944335938,1047.0,29.0,-1.0,202389.0
87833.36206054688,1048.0,31.0,2.0,202392.0
87852.04467773438,1049.0,35.0,5.0,202395.0
87870.72729492188,1050.0,38.0,9.0,202399.0
87889.40991210938,1051.0,41.0,12.0,202402.0
87908.09252929688,1052.0,41.0,13.0,202403.0
87926.77514648438,1053.0,41.0,13.0,202403.0
87945.45776367188,1054.0,39.0,12.0,202402.0
87964.14038085938,1055.0,39.0,11.0,202401.0
87982.82299804688,1056.0,38.0,8.0,202398.0
88001.50561523438,1057.0,35.0,4.0,202394.0
88020.18798828125,1058.0,29.0,-5.0,202385.0
88038.87060546875,1059.0,20.0,-15.0,202375.0
88057.55322265625,1060.0,11.0,-26.0,202364.0
88076.23583984375,1061.0,3.0,-35.0,202355.0
88094.91845703125,1062.0,-3.0,-39.0,202351.0
88113.60107421875,1063.0,-6.0,-40.0,202350.0
88132.28369140625,1064.0,-5.0,-37.0,202353.0
88150.96630859375,1065.0,-1.0,-32.0,202358.0
88169.64892578125,1066.0,3.0,-26.0,202364.0
88188.33154296875,1067.0,9.0,-19.0,202371.0
88207.01416015625,1068.0,13.0,-13.0,202377.0
88225.69677734375,1069.0,16.0,-8.0,202382.0
88244.37939453125,1070.0,19.0,-4.0,202386.0
88263.06176757812,1071.0,23.0,0.0,202390.0
88281.74438476562,1072.0,28.0,3.0,202393.0
88300.42700195312,1073.0,33.0,6.0,202396.0
88319.10961914062,1074.0,37.0,7.0,202397.0
88337.79223632812,1075.0,36.0,5.0,202395.0
88356.47485351562,1076.0,33.0,0.0,202390.0
88375.15747070312,1077.0,27.0,-4.0,202386.0
88393.84008789062,1078.0,22.0,-9.0,202381.0
88412.52270507812,1079.0,18.0,-12.0,202378.0
88431.20532226562,1080.0,16.0,-12.0,202378.0
88449.88793945312,1081.0,16.0,-10.0,202380.0
88468.57055664062,1082.0,19.0,-7.0,202383.0
88487.2529296875,1083.0,23.0,-3.0,202387.0
88505.935546875,1084.0,28.0,1.0,202391.0
88524.6181640625,1085.0,32.0,5.0,202395.0
88543.30078125,1086.0,34.0,8.0,202398.0
88561.9833984375,1087.0,35.0,10.0,202400.0
88580.666015625,1088.0,34.0,10.0,202400.0
88599.3486328125,1089.0,35.0,9.0,202399.0
88618.03125,1090.0,35.0,9.0,202399.0
88636.7138671875,1091.0,37.0,10.0,202400.0
88655.396484375,1092.0,39.0,12.0,202402.0
88674.0791015625,1093.0,39.0,15.0,202405.0
88692.76171875,1094.0,40.0,17.0,202407.0
88711.44409179688,1095.0,41.0,19.0,202409.0
88730.12670898438,1096.0,43.0,19.0,202409.0
88748.80932617188,1097.0,44.0,19.0,202409.0
88767.49194335938,1098.0,44.0,19.0,202409.0
88786.17456054688,1099.0,42.0,18.0,202408.0
88804.85717773438,1100.0,39.0,14.0,202404.0
88823.53979492188,1101.0,30.0,6.0,202396.0
88842.22241210938,1102.0,18.0,-6.0,202384.0
88860.90502929688,1103.0,7.0,-18.0,202372.0
88879.58764648438,1104.0,-3.0,-28.0,202362.0
88898.27026367188,1105.0,-8.0,-35.0,202355.0
88916.95288085938,1106.0,-11.0,-38.0,202352.0
88935.63549804688,1107.0,-9.0,-36.0,202354.0
88954.31787109375,1108.0,-3.0,-33.0,202357.0
88973.00048828125,1109.0,5.0,-28.0,202362.0
88991.68310546875,1110.0,15.0,-22.0,202368.0
89010.36572265625,1111.0,24.0,-16.0,202374.0
89029.04833984375,1112.0,31.0,-9.0,202381.0
89047.73095703125,1113.0,33.0,-2.0,202388.0
89066.41357421875,1114.0,34.0,2.0,202392.0
89085.09619140625,1115.0,33.0,5.0,202395.0
89103.77880859375,1116.0,34.0,6.0,202396.0
89122.46142578125,1117.0,33.0,5.0,202395.0
89141.14404296875,1118.0,29.0,3.0,202393.0
89159.82666015625,1119.0,22.0,-1.0,202389.0
89178.50903320312,1120.0,15.0,-5.0,202385.0
89197.19165039062,1121.0,7.0,-9.0,202381.0
89215.87426757812,1122.0,-1.0,-12.0,202378.0
89234.55688476562,1123.0,-4.0,-15.0,202375.0
89253.23950195312,1124.0,-6.0,-17.0,202373.0
89271.92211914062,1125.0,-4.0,-16.0,202374.0
89290.60473632812,1126.0,-1.0,-13.0,202377.0
89309.28735351562,1127.0,3.0,-10.0,202380.0
89327.96997070312,1128.0,5.0,-6.0,202384.0
89346.65258789062,1129.0,8.0,-3.0,202387.0
89365.33520507812,1130.0,9.0,0.0,202390.0
89384.01782226562,1131.0,10.0,3.0,202393.0
89402.7001953125,1132.0,11.0,6.0,202396.0
89421.3828125,1133.0,14.0,8.0,202398.0
89440.0654296875,1134.0,17.0,10.0,202400.0
89458.748046875,1135.0,21.0,10.0,202400.0
89477.4306640625,1136.0,23.0,10.0,202400.0
89496.11328125,1137.0,25.0,10.0,202400.0
89514.7958984375,1138.0,28.0,11.0,202401.0
89533.478515625,1139.0,31.0,13.0,202403.0
89552.1611328125,1140.0,32.0,15.0,202405.0
89570.84375,1141.0,35.0,17.0,202407.0
89589.5263671875,1142.0,39.0,19.0,202409.0
89608.208984375,1143.0,41.0,21.0,202411.0
89626.8916015625,1144.0,42.0,20.0,202410.0
89645.57397460938,1145.0,36.0,14.0,202404.0
89664.25659179688,1146.0,27.0,4.0,202394.0
89682.93920898438,1147.0,15.0,-8.0,202382.0
89701.62182617188,1148.0,4.0,-19.0,202371.0
89720.30444335938,1149.0,-4.0,-27.0,202363.0
89738.98706054688,1150.0,-9.0,-32.0,202358.0
89757.66967773438,1151.0,-10.0,-31.0,202359.0
89776.35229492188,1152.0,-7.0,-29.0,202361.0
89795.03491210938,1153.0,-2.0,-25.0,202365.0
89813.71752929688,1154.0,4.0,-19.0,202371.0
89832.40014648438,1155.0,9.0,-13.0,202377.0
89851.08276367188,1156.0,14.0,-8.0,202382.0
89869.76513671875,1157.0,18.0,-3.0,202387.0
89888.44775390625,1158.0,21.0,2.0,202392.0
89907.13037109375,1159.0,23.0,5.0,202395.0
89925.81298828125,1160.0,25.0,7.0,202397.0
89944.49560546875,1161.0,25.0,10.0,202400.0
89963.17822265625,1162.0,26.0,12.0,202402.0
89981.86083984375,1163.0,24.0,11.0,202401.0
90000.54345703125,1164.0,20.0,8.0,202398.0
90019.22607421875,1165.0,15.0,4.0,202394.0
90037.90869140625,1166.0,12.0,-1.0,202389.0
90056.59130859375,1167.0,9.0,-3.0,202387.0
90075.27392578125,1168.0,7.0,-4.0,202386.0
90093.95629882812,1169.0,7.0,-4.0,202386.0
90112.63891601562,1170.0,8.0,-3.0,202387.0
90131.32153320312,1171.0,9.0,-2.0,202388.0
90150.00415039062,1172.0,11.0,0.0,202390.0
90168.68676757812,1173.0,13.0,1.0,202391.0
90187.36938476562,1174.0,16.0,4.0,202394.0
90206.05200195312,1175.0,20.0,6.0,202396.0
90224.73461914062,1176.0,24.0,8.0,202398.0
90243.41723632812,1177.0,27.0,10.0,202400.0
90262.09985351562,1178.0,28.0,11.0,202401.0
90280.78247070312,1179.0,29.0,12.0,202402.0
90299.46508789062,1180.0,30.0,13.0,202403.0
90318.14770507812,1181.0,30.0,15.0,202405.0
90336.830078125,1182.0,31.0,17.0,202407.0
90355.5126953125,1183.0,32.0,19.0,202409.0
90374.1953125,1184.0,32.0,20.0,202410.0
90392.8779296875,1185.0,32.0,22.0,202412.0
90411.560546875,1186.0,32.0,24.0,202414.0
90430.2431640625,1187.0,31.0,25.0,202415.0
90448.92578125,1188.0,31.0,23.0,202413.0
90467.6083984375,1189.0,28.0,20.0,202410.0
90486.291015625,1190.0,22.0,12.0,202402.0
90504.9736328125,1191.0,14.0,2.0,202392.0
90523.65625,1192.0,3.0,-10.0,202380.0
90542.3388671875,1193.0,-7.0,-20.0,202370.0
90561.02124023438,1194.0,-12.0,-26.0,202364.0
90579.70385742188,1195.0,-14.0,-28.0,202362.0
90598.38647460938,1196.0,-13.0,-27.0,202363.0
90617.06909179688,1197.0,-10.0,-24.0,202366.0
90635.75170898438,1198.0,-5.0,-19.0,202371.0
90654.43432617188,1199.0,0.0,-12.0,202378.0
90673.11694335938,1200.0,5.0,-7.0,202383.0
90691.79956054688,1201.0,10.0,-3.0,202387.0
90710.48217773438,1202.0,13.0,-1.0,202389.0
90729.16479492188,1203.0,16.0,1.0,202391.0
90747.84741210938,1204.0,19.0,2.0,202392.0
90766.53002929688,1205.0,21.0,3.0,202393.0
90785.21264648438,1206.0,23.0,5.0,202395.0
90803.89501953125,1207.0,23.0,6.0,202396.0
90822.57763671875,1208.0,21.0,4.0,202394.0
90841.26025390625,1209.0,16.0,1.0,202391.0
90859.94287109375,1210.0,9.0,-3.0,202387.0
90878.62548828125,1211.0,4.0,-6.0,202384.0
90897.30810546875,1212.0,-1.0,-9.0,202381.0
90915.99072265625,1213.0,-4.0,-10.0,202380.0
90934.67333984375,1214.0,-4.0,-9.0,202381.0
90953.35595703125,1215.0,-3.0,-7.0,202383.0
90972.03857421875,1216.0,-1.0,-4.0,202386.0
90990.72119140625,1217.0,2.0,0.0,202390.0
91009.40380859375,1218.0,6.0,4.0,202394.0
91028.08618164062,1219.0,10.0,7.0,202397.0
91046.76879882812,1220.0,14.0,9.0,202399.0
91065.45141601562,1221.0,17.0,10.0,202400.0
91084.13403320312,1222.0,18.0,11.0,202401.0
91102.81665039062,1223.0,19.0,12.0,202402.0
91121.49926757812,1224.0,19.0,12.0,202402.0
91140.18188476562,1225.0,22.0,13.0,202403.0
91158.86450195312,1226.0,27.0,13.0,202403.0
91177.54711914062,1227.0,32.0,15.0,202405.0
91196.22973632812,1228.0,36.0,16.0,202406.0
91214.91235351562,1229.0,38.0,15.0,202405.0
91233.59497070312,1230.0,32.0,9.0,202399.0
91252.27734375,1231.0,22.0,-1.0,202389.0
91270.9599609375,1232.0,8.0,-13.0,202377.0
91289.642578125,1233.0,-4.0,-23.0,202367.0
91308.3251953125,1234.0,-14.0,-30.0,202360.0
91327.0078125,1235.0,-20.0,-33.0,202357.0
91345.6904296875,1236.0,-21.0,-32.0,202358.0
91364.373046875,1237.0,-19.0,-29.0,202361.0
91383.0556640625,1238.0,-12.0,-22.0,202368.0
91401.73828125,1239.0,-4.0,-17.0,202373.0
91420.4208984375,1240.0,4.0,-12.0,202378.0
91439.103515625,1241.0,11.0,-8.0,202382.0
91457.7861328125,1242.0,18.0,-5.0,202385.0
91476.46875,1243.0,23.0,-2.0,202388.0
91495.15112304688,1244.0,25.0,1.0,202391.0
91513.83374023438,1245.0,28.0,3.0,202393.0
91532.51635742188,1246.0,29.0,5.0,202395.0
91551.19897460938,1247.0,27.0,6.0,202396.0
91569.88159179688,1248.0,25.0,6.0,202396.0
91588.56420898438,1249.0,22.0,4.0,202394.0
91607.24682617188,1250.0,18.0,1.0,202391.0
91625.92944335938,1251.0,15.0,-2.0,202388.0
91644.61206054688,1252.0,13.0,-4.0,202386.0
91663.29467773438,1253.0,12.0,-5.0,202385.0
91681.97729492188,1254.0,11.0,-5.0,202385.0
91700.65991210938,1255.0,12.0,-4.0,202386.0
91719.34228515625,1256.0,13.0,-1.0,202389.0
91738.02490234375,1257.0,16.0,3.0,202393.0
91756.70751953125,1258.0,20.0,7.0,202397.0
91775.39013671875,1259.0,24.0,11.0,202401.0
91794.07275390625,1260.0,26.0,13.0,202403.0
91812.75537109375,1261.0,26.0,14.0,202404.0
91831.43798828125,1262.0,28.0,15.0,202405.0
91850.12060546875,1263.0,30.0,17.0,202407.0
91868.80322265625,1264.0,30.0,17.0,202407.0
91887.48583984375,1265.0,32.0,19.0,202409.0
91906.16845703125,1266.0,32.0,20.0,202410.0
91924.85107421875,1267.0,31.0,22.0,202412.0
91943.53344726562,1268.0,30.0,23.0,202413.0
91962.21606445312,1269.0,29.0,23.0,202413.0
91980.89868164062,1270.0,28.0,23.0,202413.0
91999.58129882812,1271.0,29.0,23.0,202413.0
92018.26391601562,1272.0,26.0,21.0,202411.0
92036.94653320312,1273.0,19.0,14.0,202404.0
92055.62915039062,1274.0,9.0,4.0,202394.0
92074.31176757812,1275.0,-1.0,-8.0,202382.0
92092.99438476562,1276.0,-10.0,-19.0,202371.0
92111.67700195312,1277.0,-18.0,-28.0,202362.0
92130.35961914062,1278.0,-22.0,-32.0,202358.0
92149.04223632812,1279.0,-20.0,-32.0,202358.0
92167.72485351562,1280.0,-17.0,-28.0,202362.0
92186.4072265625,1281.0,-12.0,-22.0,202368.0
92205.08984375,1282.0,-7.0,-16.0,202374.0
92223.7724609375,1283.0,-2.0,-10.0,202380.0
92242.455078125,1284.0,2.0,-4.0,202386.0
92261.1376953125,1285.0,6.0,0.0,202390.0
92279.8203125,1286.0,9.0,3.0,202393.0
92298.5029296875,1287.0,9.0,4.0,202394.0
92317.185546875,1288.0,8.0,4.0,202394.0
92335.8681640625,1289.0,7.0,4.0,202394.0
92354.55078125,1290.0,5.0,4.0,202394.0
92373.2333984375,1291.0,1.0,2.0,202392.0
92391.916015625,1292.0,-4.0,-2.0,202388.0
92410.59838867188,1293.0,-10.0,-6.0,202384.0
92429.28100585938,1294.0,-14.0,-9.0,202381.0
92447.96362304688,1295.0,-16.0,-12.0,202378.0
92466.64624023438,1296.0,-17.0,-12.0,202378.0
92485.32885742188,1297.0,-15.0,-12.0,202378.0
92504.01147460938,1298.0,-12.0,-9.0,202381.0
92522.69409179688,1299.0,-8.0,-5.0,202385.0
92541.37670898438,1300.0,-4.0,-1.0,202389.0
92560.05932617188,1301.0,0.0,4.0,202394.0
92578.74194335938,1302.0,5.0,8.0,202398.0
92597.42456054688,1303.0,9.0,10.0,202400.0
92616.10717773438,1304.0,12.0,12.0,202402.0
92634.78979492188,1305.0,13.0,12.0,202402.0
92653.47216796875,1306.0,13.0,13.0,202403.0
92672.15478515625,1307.0,11.0,13.0,202403.0
92690.83740234375,1308.0,10.0,15.0,202405.0
92709.52001953125,1309.0,9.0,17.0,202407.0
92728.20263671875,1310.0,9.0,19.0,202409.0
92746.88525390625,1311.0,10.0,21.0,202411.0
92765.56787109375,1312.0,12.0,21.0,202411.0
92784.25048828125,1313.0,15.0,22.0,202412.0
92802.93310546875,1314.0,17.0,22.0,202412.0
92821.61572265625,1315.0,17.0,22.0,202412.0
92840.29833984375,1316.0,15.0,19.0,202409.0
92858.98095703125,1317.0,11.0,14.0,202404.0
92877.66333007812,1318.0,3.0,6.0,202396.0
92896.34594726562,1319.0,-8.0,-5.0,202385.0
92915.02856445312,1320.0,-21.0,-16.0,202374.0
92933.71118164062,1321.0,-32.0,-26.0,202364.0
92952.39379882812,1322.0,-38.0,-30.0,202360.0
92971.07641601562,1323.0,-39.0,-32.0,202358.0
92989.75903320312,1324.0,-36.0,-31.0,202359.0
93008.44165039062,1325.0,-32.0,-27.0,202363.0
93027.12426757812,1326.0,-27.0,-23.0,202367.0
93045.80688476562,1327.0,-22.0,-18.0,202372.0
93064.48950195312,1328.0,-18.0,-13.0,202377.0
93083.17211914062,1329.0,-14.0,-6.0,202384.0
93101.8544921875,1330.0,-10.0,-2.0,202388.0
93120.537109375,1331.0,-7.0,2.0,202392.0
93139.2197265625,1332.0,-2.0,4.0,202394.0
93157.90234375,1333.0,1.0,5.0,202395.0
93176.5849609375,1334.0,5.0,6.0,202396.0
93195.267578125,1335.0,6.0,5.0,202395.0
93213.9501953125,1336.0,2.0,2.0,202392.0
93232.6328125,1337.0,-3.0,-3.0,202387.0
93251.3154296875,1338.0,-8.0,-9.0,202381.0
93269.998046875,1339.0,-12.0,-14.0,202376.0
93288.6806640625,1340.0,-15.0,-16.0,202374.0
93307.36328125,1341.0,-15.0,-16.0,202374.0
93326.0458984375,1342.0,-14.0,-15.0,202375.0
93344.72827148438,1343.0,-12.0,-13.0,202377.0
93363.41088867188,1344.0,-11.0,-9.0,202381.0
93382.09350585938,1345.0,-8.0,-6.0,202384.0
93400.77612304688,1346.0,-7.0,-3.0,202387.0
93419.45874023438,1347.0,-6.0,0.0,202390.0
93438.14135742188,1348.0,-5.0,3.0,202393.0
93456.82397460938,1349.0,-4.0,6.0,202396.0
93475.50659179688,1350.0,-2.0,7.0,202397.0
93494.18920898438,1351.0,0.0,8.0,202398.0
93512.87182617188,1352.0,2.0,9.0,202399.0
93531.55444335938,1353.0,5.0,10.0,202400.0
93550.23706054688,1354.0,7.0,12.0,202402.0
93568.91943359375,1355.0,9.0,14.0,202404.0
93587.60205078125,1356.0,9.0,15.0,202405.0
93606.28466796875,1357.0,9.0,15.0,202405.0
93624.96728515625,1358.0,8.0,10.0,202400.0
93643.64990234375,1359.0,2.0,1.0,202391.0
93662.33251953125,1360.0,-6.0,-10.0,202380.0
93681.01513671875,1361.0,-16.0,-21.0,202369.0
93699.69775390625,1362.0,-24.0,-30.0,202360.0
93718.38037109375,1363.0,-31.0,-34.0,202356.0
93737.06298828125,1364.0,-34.0,-34.0,202356.0
93755.74560546875,1365.0,-31.0,-31.0,202359.0
93774.42822265625,1366.0,-28.0,-25.0,202365.0
93793.11059570312,1367.0,-24.0,-20.0,202370.0
93811.79321289062,1368.0,-20.0,-15.0,202375.0
93830.47583007812,1369.0,-16.0,-10.0,202380.0
93849.15844726562,1370.0,-11.0,-5.0,202385.0
93867.84106445312,1371.0,-6.0,-3.0,202387.0
93886.52368164062,1372.0,0.0,0.0,202390.0
93905.20629882812,1373.0,6.0,2.0,202392.0
93923.88891601562,1374.0,10.0,5.0,202395.0
93942.57153320312,1375.0,13.0,6.0,202396.0
93961.25415039062,1376.0,12.0,5.0,202395.0
93979.93676757812,1377.0,9.0,3.0,202393.0
93998.61938476562,1378.0,4.0,-1.0,202389.0
94017.30200195312,1379.0,-2.0,-6.0,202384.0
94035.984375,1380.0,-6.0,-10.0,202380.0
94054.6669921875,1381.0,-7.0,-11.0,202379.0
94073.349609375,1382.0,-6.0,-8.0,202382.0
94092.0322265625,1383.0,-2.0,-6.0,202384.0
94110.71484375,1384.0,1.0,-3.0,202387.0
94129.3974609375,1385.0,4.0,0.0,202390.0
94148.080078125,1386.0,7.0,3.0,202393.0
94166.7626953125,1387.0,10.0,6.0,202396.0
94185.4453125,1388.0,13.0,9.0,202399.0
94204.1279296875,1389.0,16.0,12.0,202402.0
94222.810546875,1390.0,16.0,14.0,202404.0
94241.4931640625,1391.0,17.0,17.0,202407.0
94260.17553710938,1392.0,16.0,19.0,202409.0
94278.85815429688,1393.0,16.0,22.0,202412.0
94297.54077148438,1394.0,16.0,24.0,202414.0
94316.22338867188,1395.0,17.0,24.0,202414.0
94334.90600585938,1396.0,18.0,24.0,202414.0
94353.58862304688,1397.0,21.0,24.0,202414.0
94372.27124023438,1398.0,20.0,21.0,202411.0
94390.95385742188,1399.0,13.0,14.0,202404.0
94409.63647460938,1400.0,4.0,4.0,202394.0
94428.31909179688,1401.0,-7.0,-7.0,202383.0
94447.00170898438,1402.0,-16.0,-16.0,202374.0
94465.68432617188,1403.0,-25.0,-23.0,202367.0
94484.36694335938,1404.0,-31.0,-25.0,202365.0
94503.04931640625,1405.0,-34.0,-25.0,202365.0
94521.73193359375,1406.0,-32.0,-22.0,202368.0
94540.41455078125,1407.0,-28.0,-15.0,202375.0
94559.09716796875,1408.0,-21.0,-10.0,202380.0
94577.77978515625,1409.0,-14.0,-3.0,202387.0
94596.46240234375,1410.0,-8.0,3.0,202393.0
94615.14501953125,1411.0,-1.0,8.0,202398.0
94633.82763671875,1412.0,6.0,12.0,202402.0
94652.51025390625,1413.0,9.0,14.0,202404.0
94671.19287109375,1414.0,11.0,14.0,202404.0
94689.87548828125,1415.0,11.0,14.0,202404.0
94708.55810546875,1416.0,8.0,13.0,202403.0
94727.24047851562,1417.0,4.0,11.0,202401.0
94745.92309570312,1418.0,1.0,8.0,202398.0
94764.60571289062,1419.0,-3.0,4.0,202394.0
94783.28833007812,1420.0,-6.0,1.0,202391.0
94801.97094726562,1421.0,-8.0,-1.0,202389.0
94820.65356445312,1422.0,-8.0,-2.0,202388.0
94839.33618164062,1423.0,-6.0,-2.0,202388.0
94858.01879882812,1424.0,-3.0,-2.0,202388.0
94876.70141601562,1425.0,-1.0,-1.0,202389.0
94895.38403320312,1426.0,1.0,2.0,202392.0
94914.06665039062,1427.0,2.0,5.0,202395.0
94932.74926757812,1428.0,4.0,8.0,202398.0
94951.431640625,1429.0,6.0,10.0,202400.0
94970.1142578125,1430.0,8.0,13.0,202403.0
94988.796875,1431.0,10.0,14.0,202404.0
95007.4794921875,1432.0,11.0,15.0,202405.0
95026.162109375,1433.0,12.0,17.0,202407.0
95044.8447265625,1434.0,13.0,20.0,202410.0
95063.52734375,1435.0,16.0,23.0,202413.0
95082.2099609375,1436.0,20.0,24.0,202414.0
95100.892578125,1437.0,23.0,25.0,202415.0
95119.5751953125,1438.0,25.0,24.0,202414.0
95138.2578125,1439.0,25.0,22.0,202412.0
95156.9404296875,1440.0,23.0,18.0,202408.0
95175.623046875,1441.0,18.0,11.0,202401.0
95194.30541992188,1442.0,9.0,2.0,202392.0
95212.98803710938,1443.0,-1.0,-8.0,202382.0
95231.67065429688,1444.0,-11.0,-17.0,202373.0
95250.35327148438,1445.0,-19.0,-24.0,202366.0
95269.03588867188,1446.0,-23.0,-27.0,202363.0
95287.71850585938,1447.0,-25.0,-29.0,202361.0
95306.40112304688,1448.0,-24.0,-28.0,202362.0
95325.08374023438,1449.0,-20.0,-23.0,202367.0
95343.76635742188,1450.0,-15.0,-18.0,202372.0
95362.44897460938,1451.0,-9.0,-13.0,202377.0
95381.13159179688,1452.0,-3.0,-8.0,202382.0
95399.81420898438,1453.0,2.0,-4.0,202386.0
95418.49658203125,1454.0,5.0,0.0,202390.0
95437.17919921875,1455.0,8.0,4.0,202394.0
95455.86181640625,1456.0,9.0,7.0,202397.0
95474.54443359375,1457.0,9.0,8.0,202398.0
95493.22705078125,1458.0,7.0,7.0,202397.0
95511.90966796875,1459.0,4.0,4.0,202394.0
95530.59228515625,1460.0,1.0,-1.0,202389.0
95549.27490234375,1461.0,-1.0,-5.0,202385.0
95567.95751953125,1462.0,-2.0,-9.0,202381.0
95586.64013671875,1463.0,-3.0,-11.0,202379.0
95605.32275390625,1464.0,-4.0,-12.0,202378.0
95624.00537109375,1465.0,-3.0,-11.0,202379.0
95642.68774414062,1466.0,0.0,-9.0,202381.0
95661.37036132812,1467.0,2.0,-7.0,202383.0
95680.05297851562,1468.0,5.0,-4.0,202386.0
95698.73559570312,1469.0,7.0,0.0,202390.0
95717.41821289062,1470.0,9.0,3.0,202393.0
95736.10083007812,1471.0,8.0,6.0,202396.0
95754.78344726562,1472.0,7.0,8.0,202398.0
95773.46606445312,1473.0,7.0,9.0,202399.0
95792.14868164062,1474.0,6.0,9.0,202399.0
95810.83129882812,1475.0,5.0,11.0,202401.0
95829.51391601562,1476.0,4.0,11.0,202401.0
95848.19653320312,1477.0,3.0,13.0,202403.0
95866.87915039062,1478.0,3.0,15.0,202405.0
95885.5615234375,1479.0,5.0,16.0,202406.0
95904.244140625,1480.0,9.0,17.0,202407.0
95922.9267578125,1481.0,12.0,17.0,202407.0
95941.609375,1482.0,14.0,17.0,202407.0
95960.2919921875,1483.0,14.0,17.0,202407.0
95978.974609375,1484.0,15.0,17.0,202407.0
95997.6572265625,1485.0,15.0,13.0,202403.0
96016.33984375,1486.0,13.0,6.0,202396.0
96035.0224609375,1487.0,10.0,-3.0,202387.0
96053.705078125,1488.0,4.0,-12.0,202378.0
96072.3876953125,1489.0,-1.0,-19.0,202371.0
96091.0703125,1490.0,-4.0,-23.0,202367.0
96109.75268554688,1491.0,-4.0,-23.0,202367.0
96128.43530273438,1492.0,-2.0,-20.0,202370.0
96147.11791992188,1493.0,1.0,-15.0,202375.0
96165.80053710938,1494.0,5.0,-9.0,202381.0
96184.48315429688,1495.0,9.0,-4.0,202386.0
96203.16577148438,1496.0,13.0,1.0,202391.0
96221.84838867188,1497.0,18.0,6.0,202396.0
96240.53100585938,1498.0,24.0,10.0,202400.0
96259.21362304688,1499.0,28.0,13.0,202403.0
96277.89624023438,1500.0,34.0,14.0,202404.0
96296.57885742188,1501.0,38.0,15.0,202405.0
96315.26147460938,1502.0,37.0,15.0,202405.0
96333.94384765625,1503.0,34.0,13.0,202403.0
96352.62646484375,1504.0,29.0,10.0,202400.0
96371.30908203125,1505.0,25.0,5.0,202395.0
96389.99169921875,1506.0,20.0,2.0,202392.0
96408.67431640625,1507.0,15.0,-1.0,202389.0
96427.35693359375,1508.0,10.0,-2.0,202388.0
96446.03955078125,1509.0,8.0,-2.0,202388.0
96464.72216796875,1510.0,7.0,-1.0,202389.0
96483.40478515625,1511.0,8.0,0.0,202390.0
96502.08740234375,1512.0,10.0,2.0,202392.0
96520.77001953125,1513.0,12.0,5.0,202395.0
96539.45263671875,1514.0,15.0,9.0,202399.0
96558.13525390625,1515.0,17.0,13.0,202403.0
96576.81762695312,1516.0,18.0,17.0,202407.0
96595.50024414062,1517.0,20.0,20.0,202410.0
96614.18286132812,1518.0,23.0,21.0,202411.0
96632.86547851562,1519.0,25.0,22.0,202412.0
96651.54809570312,1520.0,26.0,23.0,202413.0
96670.23071289062,1521.0,30.0,24.0,202414.0
96688.91333007812,1522.0,33.0,24.0,202414.0
96707.59594726562,1523.0,32.0,25.0,202415.0
96726.27856445312,1524.0,30.0,24.0,202414.0
96744.96118164062,1525.0,25.0,18.0,202408.0
96763.64379882812,1526.0,15.0,10.0,202400.0
96782.32641601562,1527.0,6.0,0.0,202390.0
96801.0087890625,1528.0,-2.0,-9.0,202381.0
96819.69140625,1529.0,-6.0,-16.0,202374.0
96838.3740234375,1530.0,-7.0,-20.0,202370.0
96857.056640625,1531.0,-5.0,-20.0,202370.0
96875.7392578125,1532.0,-2.0,-18.0,202372.0
96894.421875,1533.0,3.0,-13.0,202377.0
96913.1044921875,1534.0,9.0,-8.0,202382.0
96931.787109375,1535.0,14.0,-2.0,202388.0
96950.4697265625,1536.0,18.0,3.0,202393.0
96969.15234375,1537.0,20.0,8.0,202398.0
96987.8349609375,1538.0,21.0,12.0,202402.0
97006.517578125,1539.0,21.0,16.0,202406.0
97025.2001953125,1540.0,22.0,18.0,202408.0
97043.88256835938,1541.0,21.0,18.0,202408.0
97062.56518554688,1542.0,20.0,15.0,202405.0
97081.24780273438,1543.0,17.0,10.0,202400.0
97099.93041992188,1544.0,16.0,5.0,202395.0
97118.61303710938,1545.0,14.0,1.0,202391.0
97137.29565429688,1546.0,11.0,-2.0,202388.0
97155.97827148438,1547.0,7.0,-4.0,202386.0
97174.66088867188,1548.0,4.0,-5.0,202385.0
97193.34350585938,1549.0,3.0,-5.0,202385.0
97212.02612304688,1550.0,4.0,-5.0,202385.0
97230.70874023438,1551.0,7.0,-3.0,202387.0
97249.39135742188,1552.0,11.0,1.0,202391.0
97268.07373046875,1553.0,15.0,4.0,202394.0
97286.75634765625,1554.0,18.0,7.0,202397.0
97305.43896484375,1555.0,21.0,10.0,202400.0
97324.12158203125,1556.0,24.0,13.0,202403.0
97342.80419921875,1557.0,26.0,15.0,202405.0
97361.48681640625,1558.0,27.0,18.0,202408.0
97380.16943359375,1559.0,29.0,19.0,202409.0
97398.85205078125,1560.0,31.0,20.0,202410.0
97417.53466796875,1561.0,31.0,18.0,202408.0
97436.21728515625,1562.0,33.0,17.0,202407.0
97454.89990234375,1563.0,34.0,17.0,202407.0
97473.58251953125,1564.0,35.0,17.0,202407.0
97492.26489257812,1565.0,35.0,18.0,202408.0
97510.94750976562,1566.0,32.0,15.0,202405.0
97529.63012695312,1567.0,27.0,11.0,202401.0
97548.31274414062,1568.0,20.0,3.0,202393.0
97566.99536132812,1569.0,12.0,-6.0,202384.0
97585.67797851562,1570.0,5.0,-15.0,202375.0
97604.36059570312,1571.0,-2.0,-22.0,202368.0
97623.04321289062,1572.0,-6.0,-26.0,202364.0
97641.72583007812,1573.0,-9.0,-28.0,202362.0
97660.40844726562,1574.0,-10.0,-26.0,202364.0
97679.09106445312,1575.0,-7.0,-22.0,202368.0
97697.77368164062,1576.0,-1.0,-16.0,202374.0
97716.45629882812,1577.0,5.0,-11.0,202379.0
97735.138671875,1578.0,11.0,-6.0,202384.0
97753.8212890625,1579.0,16.0,-1.0,202389.0
97772.50390625,1580.0,19.0,2.0,202392.0
97791.1865234375,1581.0,21.0,4.0,202394.0
97809.869140625,1582.0,20.0,7.0,202397.0
97828.5517578125,1583.0,18.0,8.0,202398.0
97847.234375,1584.0,14.0,7.0,202397.0
97865.9169921875,1585.0,11.0,5.0,202395.0
97884.599609375,1586.0,9.0,2.0,202392.0
97903.2822265625,1587.0,8.0,-2.0,202388.0
97921.96484375,1588.0,8.0,-6.0,202384.0
97940.6474609375,1589.0,9.0,-8.0,202382.0
97959.32983398438,1590.0,11.0,-10.0,202380.0
97978.01245117188,1591.0,13.0,-9.0,202381.0
97996.69506835938,1592.0,15.0,-7.0,202383.0
98015.37768554688,1593.0,17.0,-5.0,202385.0
98034.06030273438,1594.0,20.0,-2.0,202388.0
98052.74291992188,1595.0,22.0,1.0,202391.0
98071.42553710938,1596.0,23.0,4.0,202394.0
98090.10815429688,1597.0,22.0,6.0,202396.0
98108.79077148438,1598.0,21.0,6.0,202396.0
98127.47338867188,1599.0,19.0,7.0,202397.0
98146.15600585938,1600.0,17.0,8.0,202398.0
98164.83862304688,1601.0,16.0,10.0,202400.0
98183.52099609375,1602.0,17.0,11.0,202401.0
98202.20361328125,1603.0,19.0,12.0,202402.0
98220.88623046875,1604.0,21.0,13.0,202403.0
98239.56884765625,1605.0,24.0,14.0,202404.0
98258.25146484375,1606.0,26.0,13.0,202403.0
98276.93408203125,1607.0,29.0,13.0,202403.0
98295.61669921875,1608.0,32.0,13.0,202403.0
98314.29931640625,1609.0,32.0,13.0,202403.0
98332.98193359375,1610.0,32.0,12.0,202402.0
98351.66455078125,1611.0,29.0,8.0,202398.0
98370.34716796875,1612.0,22.0,1.0,202391.0
98389.02978515625,1613.0,12.0,-9.0,202381.0
98407.71240234375,1614.0,1.0,-19.0,202371.0
98426.39477539062,1615.0,-9.0,-28.0,202362.0
98445.07739257812,1616.0,-17.0,-34.0,202356.0
98463.76000976562,1617.0,-21.0,-36.0,202354.0
98482.44262695312,1618.0,-22.0,-36.0,202354.0
98501.12524414062,1619.0,-17.0,-32.0,202358.0
98519.80786132812,1620.0,-9.0,-25.0,202365.0
98538.49047851562,1621.0,-1.0,-18.0,202372.0
98557.17309570312,1622.0,6.0,-11.0,202379.0
98575.85571289062,1623.0,13.0,-5.0,202385.0
98594.53833007812,1624.0,17.0,-1.0,202389.0
98613.22094726562,1625.0,21.0,1.0,202391.0
98631.90356445312,1626.0,22.0,3.0,202393.0
98650.5859375,1627.0,23.0,4.0,202394.0
98669.2685546875,1628.0,20.0,2.0,202392.0
98687.951171875,1629.0,15.0,-2.0,202388.0
98706.6337890625,1630.0,8.0,-7.0,202383.0
98725.31640625,1631.0,2.0,-12.0,202378.0
98743.9990234375,1632.0,-3.0,-16.0,202374.0
98762.681640625,1633.0,-5.0,-19.0,202371.0
98781.3642578125,1634.0,-5.0,-19.0,202371.0
98800.046875,1635.0,-3.0,-18.0,202372.0
98818.7294921875,1636.0,-1.0,-13.0,202377.0
98837.412109375,1637.0,1.0,-9.0,202381.0
98856.0947265625,1638.0,2.0,-6.0,202384.0
98874.77734375,1639.0,4.0,-4.0,202386.0
98893.45971679688,1640.0,7.0,-2.0,202388.0
98912.14233398438,1641.0,10.0,0.0,202390.0
98930.82495117188,1642.0,15.0,1.0,202391.0
98949.50756835938,1643.0,19.0,1.0,202391.0
98968.19018554688,1644.0,20.0,2.0,202392.0
98986.87280273438,1645.0,22.0,2.0,202392.0
99005.55541992188,1646.0,21.0,3.0,202393.0
99024.23803710938,1647.0,22.0,3.0,202393.0
99042.92065429688,1648.0,22.0,4.0,202394.0
99061.60327148438,1649.0,24.0,6.0,202396.0
99080.28588867188,1650.0,26.0,8.0,202398.0
99098.96850585938,1651.0,29.0,9.0,202399.0
99117.65087890625,1652.0,33.0,10.0,202400.0
99136.33349609375,1653.0,33.0,9.0,202399.0
99155.01611328125,1654.0,31.0,4.0,202394.0
99173.69873046875,1655.0,24.0,-4.0,202386.0
99192.38134765625,1656.0,14.0,-15.0,202375.0
99211.06396484375,1657.0,3.0,-24.0,202366.0
99229.74658203125,1658.0,-7.0,-32.0,202358.0
99248.42919921875,1659.0,-13.0,-38.0,202352.0
99267.11181640625,1660.0,-15.0,-39.0,202351.0
99285.79443359375,1661.0,-12.0,-38.0,202352.0
99304.47705078125,1662.0,-8.0,-34.0,202356.0
99323.15966796875,1663.0,-3.0,-29.0,202361.0
99341.84204101562,1664.0,2.0,-24.0,202366.0
99360.52465820312,1665.0,7.0,-19.0,202371.0
99379.20727539062,1666.0,12.0,-14.0,202376.0
99397.88989257812,1667.0,16.0,-10.0,202380.0
99416.57250976562,1668.0,21.0,-8.0,202382.0
99435.25512695312,1669.0,24.0,-5.0,202385.0
99453.93774414062,1670.0,26.0,-4.0,202386.0
99472.62036132812,1671.0,25.0,-5.0,202385.0
99491.30297851562,1672.0,20.0,-7.0,202383.0
99509.98559570312,1673.0,15.0,-11.0,202379.0
99528.66821289062,1674.0,11.0,-15.0,202375.0
99547.35083007812,1675.0,7.0,-19.0,202371.0
99566.03344726562,1676.0,5.0,-22.0,202368.0
99584.7158203125,1677.0,4.0,-24.0,202366.0
99603.3984375,1678.0,6.0,-22.0,202368.0
99622.0810546875,1679.0,8.0,-19.0,202371.0
99640.763671875,1680.0,11.0,-15.0,202375.0
99659.4462890625,1681.0,14.0,-11.0,202379.0
99678.12890625,1682.0,17.0,-7.0,202383.0
99696.8115234375,1683.0,19.0,-4.0,202386.0
99715.494140625,1684.0,19.0,-2.0,202388.0
99734.1767578125,1685.0,19.0,-1.0,202389.0
99752.859375,1686.0,18.0,1.0,202391.0
99771.5419921875,1687.0,20.0,2.0,202392.0
99790.224609375,1688.0,22.0,3.0,202393.0
99808.90698242188,1689.0,25.0,4.0,202394.0
99827.58959960938,1690.0,28.0,5.0,202395.0
99846.27221679688,1691.0,31.0,7.0,202397.0
99864.95483398438,1692.0,33.0,9.0,202399.0
99883.63745117188,1693.0,31.0,9.0,202399.0
99902.32006835938,1694.0,27.0,7.0,202397.0
99921.00268554688,1695.0,18.0,0.0,202390.0
99939.68530273438,1696.0,8.0,-9.0,202381.0
99958.36791992188,1697.0,-3.0,-19.0,202371.0
99977.05053710938,1698.0,-12.0,-26.0,202364.0
99995.73315429688,1699.0,-17.0,-31.0,202359.0
100014.41577148438,1700.0,-20.0,-34.0,202356.0
100033.09814453125,1701.0,-19.0,-33.0,202357.0
100051.78076171875,1702.0,-17.0,-31.0,202359.0
100070.46337890625,1703.0,-13.0,-26.0,202364.0
100089.14599609375,1704.0,-7.0,-19.0,202371.0
100107.82861328125,1705.0,-2.0,-14.0,202376.0
100126.51123046875,1706.0,3.0,-9.0,202381.0
100145.19384765625,1707.0,8.0,-4.0,202386.0
100163.87646484375,1708.0,13.0,-2.0,202388.0
100182.55908203125,1709.0,18.0,0.0,202390.0
100201.24169921875,1710.0,20.0,1.0,202391.0
100219.92431640625,1711.0,20.0,0.0,202390.0
100238.60693359375,1712.0,18.0,-1.0,202389.0
100257.28955078125,1713.0,15.0,-4.0,202386.0
100275.97192382812,1714.0,10.0,-6.0,202384.0
100294.65454101562,1715.0,8.0,-9.0,202381.0
100313.33715820312,1716.0,7.0,-10.0,202380.0
100332.01977539062,1717.0,7.0,-11.0,202379.0
100350.70239257812,1718.0,7.0,-11.0,202379.0
100369.38500976562,1719.0,8.0,-9.0,202381.0
100388.06762695312,1720.0,9.0,-7.0,202383.0
100406.75024414062,1721.0,10.0,-5.0,202385.0
100425.43286132812,1722.0,11.0,-3.0,202387.0
100444.11547851562,1723.0,13.0,0.0,202390.0
100462.79809570312,1724.0,14.0,3.0,202393.0
100481.48071289062,1725.0,17.0,6.0,202396.0
100500.1630859375,1726.0,20.0,8.0,202398.0
100518.845703125,1727.0,23.0,10.0,202400.0
100537.5283203125,1728.0,26.0,11.0,202401.0
100556.2109375,1729.0,27.0,11.0,202401.0
100574.8935546875,1730.0,28.0,12.0,202402.0
100593.576171875,1731.0,30.0,13.0,202403.0
100612.2587890625,1732.0,30.0,13.0,202403.0
100630.94140625,1733.0,32.0,14.0,202404.0
100649.6240234375,1734.0,35.0,14.0,202404.0
100668.306640625,1735.0,37.0,14.0,202404.0
100686.9892578125,1736.0,40.0,14.0,202404.0
100705.671875,1737.0,39.0,12.0,202402.0
100724.3544921875,1738.0,34.0,8.0,202398.0
100743.03686523438,1739.0,24.0,-1.0,202389.0
100761.71948242188,1740.0,12.0,-10.0,202380.0
100780.40209960938,1741.0,-1.0,-20.0,202370.0
100799.08471679688,1742.0,-13.0,-29.0,202361.0
100817.76733398438,1743.0,-21.0,-35.0,202355.0
100836.44995117188,1744.0,-25.0,-35.0,202355.0
100855.13256835938,1745.0,-25.0,-34.0,202356.0
100873.81518554688,1746.0,-23.0,-32.0,202358.0
100892.49780273438,1747.0,-19.0,-27.0,202363.0
100911.18041992188,1748.0,-12.0,-23.0,202367.0
100929.86303710938,1749.0,-4.0,-17.0,202373.0
100948.54565429688,1750.0,3.0,-11.0,202379.0
100967.22802734375,1751.0,9.0,-6.0,202384.0
100985.91064453125,1752.0,14.0,-2.0,202388.0
101004.59326171875,1753.0,19.0,1.0,202391.0
101023.27587890625,1754.0,21.0,3.0,202393.0
101041.95849609375,1755.0,24.0,5.0,202395.0
101060.64111328125,1756.0,25.0,5.0,202395.0
101079.32373046875,1757.0,23.0,3.0,202393.0
101098.00634765625,1758.0,20.0,0.0,202390.0
101116.68896484375,1759.0,16.0,-4.0,202386.0
101135.37158203125,1760.0,11.0,-8.0,202382.0
101154.05419921875,1761.0,6.0,-12.0,202378.0
101172.73681640625,1762.0,5.0,-13.0,202377.0
101191.41918945312,1763.0,5.0,-13.0,202377.0
101210.10180664062,1764.0,6.0,-13.0,202377.0
101228.78442382812,1765.0,7.0,-11.0,202379.0
101247.46704101562,1766.0,9.0,-8.0,202382.0
101266.14965820312,1767.0,11.0,-5.0,202385.0
101284.83227539062,1768.0,12.0,-1.0,202389.0
101303.51489257812,1769.0,13.0,3.0,202393.0
101322.19750976562,1770.0,12.0,7.0,202397.0
101340.88012695312,1771.0,11.0,10.0,202400.0
101359.56274414062,1772.0,11.0,12.0,202402.0
101378.24536132812,1773.0,11.0,11.0,202401.0
101396.92797851562,1774.0,13.0,12.0,202402.0
101415.61059570312,1775.0,15.0,13.0,202403.0
101434.29296875,1776.0,17.0,13.0,202403.0
101452.9755859375,1777.0,19.0,15.0,202405.0
101471.658203125,1778.0,20.0,15.0,202405.0
101490.3408203125,1779.0,20.0,15.0,202405.0
101509.0234375,1780.0,21.0,14.0,202404.0
101527.7060546875,1781.0,21.0,13.0,202403.0
101546.388671875,1782.0,21.0,12.0,202402.0
101565.0712890625,1783.0,18.0,8.0,202398.0
101583.75390625,1784.0,11.0,1.0,202391.0
101602.4365234375,1785.0,2.0,-9.0,202381.0
101621.119140625,1786.0,-9.0,-21.0,202369.0
101639.8017578125,1787.0,-20.0,-30.0,202360.0
101658.48413085938,1788.0,-28.0,-36.0,202354.0
101677.16674804688,1789.0,-32.0,-39.0,202351.0
101695.84936523438,1790.0,-32.0,-38.0,202352.0
101714.53198242188,1791.0,-29.0,-34.0,202356.0
101733.21459960938,1792.0,-26.0,-30.0,202360.0
101751.89721679688,1793.0,-23.0,-25.0,202365.0
101770.57983398438,1794.0,-19.0,-21.0,202369.0
101789.26245117188,1795.0,-14.0,-17.0,202373.0
101807.94506835938,1796.0,-9.0,-14.0,202376.0
101826.62768554688,1797.0,-6.0,-9.0,202381.0
101845.31030273438,1798.0,-2.0,-6.0,202384.0
101863.99291992188,1799.0,0.0,-3.0,202387.0
101882.67529296875,1800.0,2.0,-2.0,202388.0
101901.35791015625,1801.0,2.0,-3.0,202387.0
101920.04052734375,1802.0,2.0,-5.0,202385.0
101938.72314453125,1803.0,1.0,-8.0,202382.0
101957.40576171875,1804.0,0.0,-10.0,202380.0
101976.08837890625,1805.0,-1.0,-12.0,202378.0
101994.77099609375,1806.0,-1.0,-14.0,202376.0
102013.45361328125,1807.0,0.0,-14.0,202376.0
102032.13623046875,1808.0,3.0,-12.0,202378.0
102050.81884765625,1809.0,6.0,-10.0,202380.0
102069.50146484375,1810.0,9.0,-7.0,202383.0
102088.18408203125,1811.0,10.0,-5.0,202385.0
102106.86669921875,1812.0,10.0,-2.0,202388.0
102125.54907226562,1813.0,8.0,0.0,202390.0
102144.23168945312,1814.0,8.0,2.0,202392.0
102162.91430664062,1815.0,7.0,3.0,202393.0
102181.59692382812,1816.0,9.0,5.0,202395.0
102200.27954101562,1817.0,12.0,7.0,202397.0
102218.96215820312,1818.0,16.0,10.0,202400.0
102237.64477539062,1819.0,18.0,12.0,202402.0
102256.32739257812,1820.0,20.0,13.0,202403.0
102275.01000976562,1821.0,21.0,13.0,202403.0
102293.69262695312,1822.0,22.0,13.0,202403.0
102312.37524414062,1823.0,22.0,11.0,202401.0
102331.05786132812,1824.0,19.0,7.0,202397.0
102349.740234375,1825.0,11.0,-1.0,202389.0
102368.4228515625,1826.0,-1.0,-11.0,202379.0
102387.10546875,1827.0,-14.0,-22.0,202368.0
102405.7880859375,1828.0,-23.0,-31.0,202359.0
102424.470703125,1829.0,-29.0,-35.0,202355.0
102443.1533203125,1830.0,-32.0,-37.0,202353.0
102461.8359375,1831.0,-31.0,-34.0,202356.0
102480.5185546875,1832.0,-29.0,-31.0,202359.0
102499.201171875,1833.0,-27.0,-26.0,202364.0
102517.8837890625,1834.0,-22.0,-21.0,202369.0
102536.56640625,1835.0,-19.0,-16.0,202374.0
102555.2490234375,1836.0,-16.0,-12.0,202378.0
102573.93139648438,1837.0,-13.0,-9.0,202381.0
102592.61401367188,1838.0,-10.0,-7.0,202383.0
102611.29663085938,1839.0,-8.0,-4.0,202386.0
102629.97924804688,1840.0,-7.0,-3.0,202387.0
102648.66186523438,1841.0,-7.0,-2.0,202388.0
102667.34448242188,1842.0,-8.0,-4.0,202386.0
102686.02709960938,1843.0,-11.0,-6.0,202384.0
102704.70971679688,1844.0,-14.0,-10.0,202380.0
102723.39233398438,1845.0,-18.0,-13.0,202377.0
102742.07495117188,1846.0,-20.0,-17.0,202373.0
102760.75756835938,1847.0,-22.0,-19.0,202371.0
102779.44018554688,1848.0,-23.0,-18.0,202372.0
102798.12280273438,1849.0,-23.0,-16.0,202374.0
102816.80517578125,1850.0,-20.0,-14.0,202376.0
102835.48779296875,1851.0,-17.0,-10.0,202380.0
102854.17041015625,1852.0,-12.0,-7.0,202383.0
102872.85302734375,1853.0,-7.0,-4.0,202386.0
102891.53564453125,1854.0,-4.0,-2.0,202388.0
102910.21826171875,1855.0,-1.0,0.0,202390.0
102928.90087890625,1856.0,1.0,2.0,202392.0
102947.58349609375,1857.0,2.0,5.0,202395.0
102966.26611328125,1858.0,4.0,7.0,202397.0
102984.94873046875,1859.0,5.0,8.0,202398.0
103003.63134765625,1860.0,6.0,9.0,202399.0
103022.31396484375,1861.0,7.0,9.0,202399.0
103040.99633789062,1862.0,8.0,9.0,202399.0
103059.67895507812,1863.0,9.0,8.0,202398.0
103078.36157226562,1864.0,9.0,7.0,202397.0
103097.04418945312,1865.0,10.0,4.0,202394.0
103115.72680664062,1866.0,9.0,-1.0,202389.0
103134.40942382812,1867.0,6.0,-9.0,202381.0
103153.09204101562,1868.0,0.0,-17.0,202373.0
103171.77465820312,1869.0,-7.0,-25.0,202365.0
103190.45727539062,1870.0,-14.0,-32.0,202358.0
103209.13989257812,1871.0,-19.0,-34.0,202356.0
103227.82250976562,1872.0,-20.0,-34.0,202356.0
103246.50512695312,1873.0,-18.0,-32.0,202358.0
103265.18774414062,1874.0,-14.0,-28.0,202362.0
103283.8701171875,1875.0,-8.0,-24.0,202366.0
103302.552734375,1876.0,-3.0,-20.0,202370.0
103321.2353515625,1877.0,2.0,-14.0,202376.0
103339.91796875,1878.0,6.0,-9.0,202381.0
103358.6005859375,1879.0,9.0,-4.0,202386.0
103377.283203125,1880.0,13.0,0.0,202390.0
103395.9658203125,1881.0,16.0,3.0,202393.0
103414.6484375,1882.0,18.0,5.0,202395.0
103433.3310546875,1883.0,19.0,4.0,202394.0
103452.013671875,1884.0,18.0,2.0,202392.0
103470.6962890625,1885.0,16.0,-1.0,202389.0
103489.37890625,1886.0,13.0,-5.0,202385.0
103508.06127929688,1887.0,12.0,-8.0,202382.0
103526.74389648438,1888.0,11.0,-11.0,202379.0
103545.42651367188,1889.0,10.0,-13.0,202377.0
103564.10913085938,1890.0,9.0,-13.0,202377.0
103582.79174804688,1891.0,9.0,-12.0,202378.0
103601.47436523438,1892.0,9.0,-12.0,202378.0
103620.15698242188,1893.0,8.0,-12.0,202378.0
103638.83959960938,1894.0,6.0,-13.0,202377.0
103657.52221679688,1895.0,4.0,-14.0,202376.0
103676.20483398438,1896.0,3.0,-14.0,202376.0
103694.88745117188,1897.0,3.0,-12.0,202378.0
103713.57006835938,1898.0,3.0,-10.0,202380.0
103732.25244140625,1899.0,4.0,-8.0,202382.0
103750.93505859375,1900.0,4.0,-7.0,202383.0
103769.61767578125,1901.0,5.0,-6.0,202384.0
103788.30029296875,1902.0,6.0,-5.0,202385.0
103806.98291015625,1903.0,7.0,-4.0,202386.0
103825.66552734375,1904.0,8.0,-3.0,202387.0
103844.34814453125,1905.0,8.0,-2.0,202388.0
103863.03076171875,1906.0,7.0,-2.0,202388.0
103881.71337890625,1907.0,5.0,-5.0,202385.0
103900.39599609375,1908.0,0.0,-11.0,202379.0
103919.07861328125,1909.0,-8.0,-20.0,202370.0
103937.76123046875,1910.0,-17.0,-28.0,202362.0
103956.44384765625,1911.0,-25.0,-37.0,202353.0
103975.12622070312,1912.0,-33.0,-43.0,202347.0
103993.80883789062,1913.0,-36.0,-46.0,202344.0
104012.49145507812,1914.0,-37.0,-47.0,202343.0
104031.17407226562,1915.0,-34.0,-44.0,202346.0
104049.85668945312,1916.0,-28.0,-38.0,202352.0
104068.53930664062,1917.0,-20.0,-33.0,202357.0
104087.22192382812,1918.0,-11.0,-27.0,202363.0
104105.90454101562,1919.0,-5.0,-21.0,202369.0
104124.58715820312,1920.0,-1.0,-16.0,202374.0
104143.26977539062,1921.0,1.0,-12.0,202378.0
104161.95239257812,1922.0,1.0,-8.0,202382.0
104180.63500976562,1923.0,1.0,-5.0,202385.0
104199.3173828125,1924.0,0.0,-3.0,202387.0
104218.0,1925.0,1.0,-4.0,202386.0
104236.6826171875,1926.0,3.0,-5.0,202385.0
104255.365234375,1927.0,5.0,-8.0,202382.0
104274.0478515625,1928.0,6.0,-11.0,202379.0
104292.73046875,1929.0,5.0,-13.0,202377.0
104311.4130859375,1930.0,3.0,-15.0,202375.0
104330.095703125,1931.0,2.0,-16.0,202374.0
104348.7783203125,1932.0,4.0,-16.0,202374.0
104367.4609375,1933.0,7.0,-14.0,202376.0
104386.1435546875,1934.0,9.0,-12.0,202378.0
104404.826171875,1935.0,12.0,-10.0,202380.0
104423.50854492188,1936.0,15.0,-8.0,202382.0
104442.19116210938,1937.0,17.0,-6.0,202384.0
104460.87377929688,1938.0,20.0,-4.0,202386.0
104479.55639648438,1939.0,24.0,-2.0,202388.0
104498.23901367188,1940.0,27.0,-1.0,202389.0
104516.92163085938,1941.0,29.0,1.0,202391.0
104535.60424804688,1942.0,30.0,2.0,202392.0
104554.28686523438,1943.0,29.0,3.0,202393.0
104572.96948242188,1944.0,30.0,4.0,202394.0
104591.65209960938,1945.0,30.0,6.0,202396.0
104610.33471679688,1946.0,28.0,8.0,202398.0
104629.01733398438,1947.0,26.0,8.0,202398.0
104647.69995117188,1948.0,25.0,8.0,202398.0
104666.38232421875,1949.0,23.0,5.0,202395.0
104685.06494140625,1950.0,19.0,-2.0,202388.0
104703.74755859375,1951.0,12.0,-12.0,202378.0
104722.43017578125,1952.0,2.0,-23.0,202367.0
104741.11279296875,1953.0,-8.0,-33.0,202357.0
104759.79541015625,1954.0,-15.0,-39.0,202351.0
104778.47802734375,1955.0,-19.0,-42.0,202348.0
104797.16064453125,1956.0,-20.0,-40.0,202350.0
104815.84326171875,1957.0,-16.0,-36.0,202354.0
104834.52587890625,1958.0,-12.0,-30.0,202360.0
104853.20849609375,1959.0,-8.0,-23.0,202367.0
104871.89111328125,1960.0,-3.0,-18.0,202372.0
104890.57348632812,1961.0,3.0,-13.0,202377.0
104909.25610351562,1962.0,9.0,-9.0,202381.0
104927.93872070312,1963.0,13.0,-4.0,202386.0
104946.62133789062,1964.0,14.0,0.0,202390.0
104965.30395507812,1965.0,15.0,2.0,202392.0
104983.98657226562,1966.0,13.0,3.0,202393.0
105002.66918945312,1967.0,10.0,1.0,202391.0
105021.35180664062,1968.0,5.0,-3.0,202387.0
105040.03442382812,1969.0,1.0,-7.0,202383.0
105058.71704101562,1970.0,-3.0,-12.0,202378.0
105077.39965820312,1971.0,-6.0,-15.0,202375.0
105096.08227539062,1972.0,-8.0,-17.0,202373.0
105114.76489257812,1973.0,-8.0,-17.0,202373.0
105133.447265625,1974.0,-6.0,-16.0,202374.0
105152.1298828125,1975.0,-1.0,-12.0,202378.0
105170.8125,1976.0,4.0,-10.0,202380.0
105189.4951171875,1977.0,9.0,-8.0,202382.0
105208.177734375,1978.0,14.0,-6.0,202384.0
105226.8603515625,1979.0,18.0,-3.0,202387.0
105245.54296875,1980.0,22.0,-1.0,202389.0
105264.2255859375,1981.0,25.0,1.0,202391.0
105282.908203125,1982.0,25.0,3.0,202393.0
105301.5908203125,1983.0,26.0,5.0,202395.0
105320.2734375,1984.0,27.0,7.0,202397.0
105338.9560546875,1985.0,28.0,8.0,202398.0
105357.63842773438,1986.0,28.0,8.0,202398.0
105376.32104492188,1987.0,27.0,6.0,202396.0
105395.00366210938,1988.0,24.0,0.0,202390.0
105413.68627929688,1989.0,16.0,-10.0,202380.0
105432.36889648438,1990.0,7.0,-21.0,202369.0
105451.05151367188,1991.0,-4.0,-30.0,202360.0
105469.73413085938,1992.0,-12.0,-35.0,202355.0
105488.41674804688,1993.0,-18.0,-38.0,202352.0
105507.09936523438,1994.0,-20.0,-36.0,202354.0
105525.78198242188,1995.0,-17.0,-31.0,202359.0
105544.46459960938,1996.0,-11.0,-27.0,202363.0
105563.14721679688,1997.0,-4.0,-22.0,202368.0
105581.82958984375,1998.0,4.0,-15.0,202375.0
105600.51220703125,1999.0,10.0,-10.0,202380.0
105619.19482421875,2000.0,15.0,-5.0,202385.0
105637.87744140625,2001.0,20.0,-1.0,202389.0
105656.56005859375,2002.0,23.0,1.0,202391.0
105675.24267578125,2003.0,22.0,3.0,202393.0
105693.92529296875,2004.0,20.0,3.0,202393.0
105712.60791015625,2005.0,17.0,1.0,202391.0
105731.29052734375,2006.0,12.0,-1.0,202389.0
105749.97314453125,2007.0,5.0,-5.0,202385.0
105768.65576171875,2008.0,-1.0,-10.0,202380.0
105787.33837890625,2009.0,-6.0,-14.0,202376.0
105806.02099609375,2010.0,-7.0,-16.0,202374.0
105824.70336914062,2011.0,-5.0,-16.0,202374.0
105843.38598632812,2012.0,-3.0,-16.0,202374.0
105862.06860351562,2013.0,0.0,-15.0,202375.0
105880.75122070312,2014.0,4.0,-12.0,202378.0
105899.43383789062,2015.0,7.0,-9.0,202381.0
105918.11645507812,2016.0,10.0,-6.0,202384.0
105936.79907226562,2017.0,12.0,-3.0,202387.0
105955.48168945312,2018.0,13.0,-1.0,202389.0
105974.16430664062,2019.0,16.0,1.0,202391.0
105992.84692382812,2020.0,18.0,2.0,202392.0
106011.52954101562,2021.0,21.0,4.0,202394.0
106030.21215820312,2022.0,22.0,6.0,202396.0
106048.89453125,2023.0,22.0,7.0,202397.0
106067.5771484375,2024.0,21.0,8.0,202398.0
106086.259765625,2025.0,20.0,8.0,202398.0
106104.9423828125,2026.0,18.0,7.0,202397.0
106123.625,2027.0,14.0,4.0,202394.0
106142.3076171875,2028.0,8.0,-4.0,202386.0
106160.990234375,2029.0,1.0,-14.0,202376.0
106179.6728515625,2030.0,-5.0,-25.0,202365.0
106198.35546875,2031.0,-11.0,-33.0,202357.0
106217.0380859375,2032.0,-15.0,-38.0,202352.0
106235.720703125,2033.0,-17.0,-41.0,202349.0
106254.4033203125,2034.0,-16.0,-41.0,202349.0
106273.08569335938,2035.0,-13.0,-39.0,202351.0
106291.76831054688,2036.0,-9.0,-34.0,202356.0
106310.45092773438,2037.0,-4.0,-30.0,202360.0
106329.13354492188,2038.0,0.0,-24.0,202366.0
106347.81616210938,2039.0,2.0,-20.0,202370.0
106366.49877929688,2040.0,3.0,-16.0,202374.0
106385.18139648438,2041.0,1.0,-14.0,202376.0
106403.86401367188,2042.0,-2.0,-12.0,202378.0
106422.54663085938,2043.0,-4.0,-12.0,202378.0
106441.22924804688,2044.0,-7.0,-12.0,202378.0
106459.91186523438,2045.0,-10.0,-12.0,202378.0
106478.59448242188,2046.0,-15.0,-14.0,202376.0
106497.27709960938,2047.0,-19.0,-18.0,202372.0
106515.95947265625,2048.0,-23.0,-21.0,202369.0
106534.64208984375,2049.0,-26.0,-24.0,202366.0
106553.32470703125,2050.0,-29.0,-27.0,202363.0
106572.00732421875,2051.0,-28.0,-30.0,202360.0
106590.68994140625,2052.0,-24.0,-27.0,202363.0
106609.37255859375,2053.0,-16.0,-24.0,202366.0
106628.05517578125,2054.0,-5.0,-18.0,202372.0
106646.73779296875,2055.0,4.0,-12.0,202378.0
106665.42041015625,2056.0,12.0,-7.0,202383.0
106684.10302734375,2057.0,16.0,-3.0,202387.0
106702.78564453125,2058.0,20.0,0.0,202390.0
106721.46826171875,2059.0,21.0,1.0,202391.0
106740.15063476562,2060.0,22.0,2.0,202392.0
106758.83325195312,2061.0,22.0,3.0,202393.0
106777.51586914062,2062.0,22.0,4.0,202394.0
106796.19848632812,2063.0,23.0,5.0,202395.0
106814.88110351562,2064.0,23.0,7.0,202397.0
106833.56372070312,2065.0,24.0,8.0,202398.0
106852.24633789062,2066.0,24.0,10.0,202400.0
106870.92895507812,2067.0,26.0,10.0,202400.0
106889.61157226562,2068.0,27.0,10.0,202400.0
106908.29418945312,2069.0,24.0,7.0,202397.0
106926.97680664062,2070.0,19.0,1.0,202391.0
106945.65942382812,2071.0,10.0,-9.0,202381.0
106964.34204101562,2072.0,1.0,-20.0,202370.0
106983.0244140625,2073.0,-9.0,-31.0,202359.0
107001.70703125,2074.0,-19.0,-37.0,202353.0
107020.3896484375,2075.0,-26.0,-42.0,202348.0
107039.072265625,2076.0,-30.0,-41.0,202349.0
107057.7548828125,2077.0,-31.0,-40.0,202350.0
107076.4375,2078.0,-30.0,-34.0,202356.0
107095.1201171875,2079.0,-25.0,-29.0,202361.0
107113.802734375,2080.0,-19.0,-23.0,202367.0
107132.4853515625,2081.0,-15.0,-17.0,202373.0
107151.16796875,2082.0,-12.0,-14.0,202376.0
107169.8505859375,2083.0,-10.0,-12.0,202378.0
107188.533203125,2084.0,-7.0,-10.0,202380.0
107207.21557617188,2085.0,-4.0,-7.0,202383.0
107225.89819335938,2086.0,-3.0,-7.0,202383.0
107244.58081054688,2087.0,-4.0,-6.0,202384.0
107263.26342773438,2088.0,-6.0,-9.0,202381.0
107281.94604492188,2089.0,-8.0,-12.0,202378.0
107300.62866210938,2090.0,-10.0,-16.0,202374.0
107319.31127929688,2091.0,-12.0,-18.0,202372.0
107337.99389648438,2092.0,-12.0,-18.0,202372.0
107356.67651367188,2093.0,-11.0,-16.0,202374.0
107375.35913085938,2094.0,-9.0,-13.0,202377.0
107394.04174804688,2095.0,-7.0,-11.0,202379.0
107412.72436523438,2096.0,-6.0,-10.0,202380.0
107431.40673828125,2097.0,-6.0,-9.0,202381.0
107450.08935546875,2098.0,-6.0,-8.0,202382.0
107468.77197265625,2099.0,-5.0,-7.0,202383.0
107487.45458984375,2100.0,-5.0,-6.0,202384.0
107506.13720703125,2101.0,-3.0,-4.0,202386.0
107524.81982421875,2102.0,-2.0,-2.0,202388.0
107543.50244140625,2103.0,0.0,-1.0,202389.0
107562.18505859375,2104.0,1.0,1.0,202391.0
107580.86767578125,2105.0,2.0,4.0,202394.0
107599.55029296875,2106.0,4.0,7.0,202397.0
107618.23291015625,2107.0,7.0,8.0,202398.0
107636.91552734375,2108.0,10.0,9.0,202399.0
107655.59814453125,2109.0,13.0,9.0,202399.0
107674.28051757812,2110.0,14.0,7.0,202397.0
107692.96313476562,2111.0,10.0,1.0,202391.0
107711.64575195312,2112.0,1.0,-8.0,202382.0
107730.32836914062,2113.0,-11.0,-19.0,202371.0
107749.01098632812,2114.0,-21.0,-30.0,202360.0
107767.69360351562,2115.0,-30.0,-36.0,202354.0
107786.37622070312,2116.0,-33.0,-39.0,202351.0
107805.05883789062,2117.0,-31.0,-37.0,202353.0
107823.74145507812,2118.0,-28.0,-34.0,202356.0
107842.42407226562,2119.0,-23.0,-29.0,202361.0
107861.10668945312,2120.0,-18.0,-24.0,202366.0
107879.78930664062,2121.0,-13.0,-20.0,202370.0
107898.4716796875,2122.0,-8.0,-15.0,202375.0
107917.154296875,2123.0,-2.0,-9.0,202381.0
107935.8369140625,2124.0,4.0,-4.0,202386.0
107954.51953125,2125.0,8.0,0.0,202390.0
107973.2021484375,2126.0,12.0,3.0,202393.0
107991.884765625,2127.0,13.0,4.0,202394.0
108010.5673828125,2128.0,11.0,4.0,202394.0
108029.25,2129.0,5.0,1.0,202391.0
108047.9326171875,2130.0,-1.0,-2.0,202388.0
108066.615234375,2131.0,-7.0,-6.0,202384.0
108085.2978515625,2132.0,-9.0,-10.0,202380.0
108103.98046875,2133.0,-11.0,-12.0,202378.0
108122.66284179688,2134.0,-11.0,-13.0,202377.0
108141.34545898438,2135.0,-7.0,-11.0,202379.0
108160.02807617188,2136.0,0.0,-8.0,202382.0
108178.71069335938,2137.0,6.0,-5.0,202385.0
108197.39331054688,2138.0,11.0,-1.0,202389.0
108216.07592773438,2139.0,16.0,3.0,202393.0
108234.75854492188,2140.0,22.0,7.0,202397.0
108253.44116210938,2141.0,28.0,10.0,202400.0
108272.12377929688,2142.0,34.0,14.0,202404.0
108290.80639648438,2143.0,41.0,16.0,202406.0
108309.48901367188,2144.0,44.0,18.0,202408.0
108328.17163085938,2145.0,47.0,19.0,202409.0
108346.85424804688,2146.0,47.0,19.0,202409.0
108365.53662109375,2147.0,47.0,19.0,202409.0
108384.21923828125,2148.0,46.0,20.0,202410.0
108402.90185546875,2149.0,45.0,20.0,202410.0
108421.58447265625,2150.0,40.0,17.0,202407.0
108440.26708984375,2151.0,33.0,9.0,202399.0
108458.94970703125,2152.0,22.0,-2.0,202388.0
108477.63232421875,2153.0,13.0,-14.0,202376.0
108496.31494140625,2154.0,4.0,-23.0,202367.0
108514.99755859375,2155.0,-3.0,-29.0,202361.0
108533.68017578125,2156.0,-8.0,-32.0,202358.0
108552.36279296875,2157.0,-9.0,-31.0,202359.0
108571.04541015625,2158.0,-8.0,-27.0,202363.0
108589.72778320312,2159.0,-4.0,-22.0,202368.0
108608.41040039062,2160.0,3.0,-15.0,202375.0
108627.09301757812,2161.0,12.0,-7.0,202383.0
108645.77563476562,2162.0,21.0,0.0,202390.0
108664.45825195312,2163.0,27.0,6.0,202396.0
108683.14086914062,2164.0,30.0,11.0,202401.0
108701.82348632812,2165.0,30.0,14.0,202404.0
108720.50610351562,2166.0,29.0,15.0,202405.0
108739.18872070312,2167.0,23.0,14.0,202404.0
108757.87133789062,2168.0,16.0,9.0,202399.0
108776.55395507812,2169.0,7.0,3.0,202393.0
108795.23657226562,2170.0,-1.0,-3.0,202387.0
108813.9189453125,2171.0,-8.0,-7.0,202383.0
108832.6015625,2172.0,-13.0,-11.0,202379.0
108851.2841796875,2173.0,-16.0,-13.0,202377.0
108869.966796875,2174.0,-15.0,-13.0,202377.0
108888.6494140625,2175.0,-11.0,-12.0,202378.0
108907.33203125,2176.0,-9.0,-9.0,202381.0
108926.0146484375,2177.0,-6.0,-5.0,202385.0
108944.697265625,2178.0,-3.0,-1.0,202389.0
108963.3798828125,2179.0,1.0,4.0,202394.0
108982.0625,2180.0,3.0,8.0,202398.0
109000.7451171875,2181.0,4.0,10.0,202400.0
109019.427734375,2182.0,5.0,13.0,202403.0
109038.1103515625,2183.0,6.0,14.0,202404.0
109056.79272460938,2184.0,9.0,16.0,202406.0
109075.47534179688,2185.0,11.0,18.0,202408.0
109094.15795898438,2186.0,12.0,19.0,202409.0
109112.84057617188,2187.0,13.0,21.0,202411.0
109131.52319335938,2188.0,15.0,21.0,202411.0
109150.20581054688,2189.0,17.0,22.0,202412.0
109168.88842773438,2190.0,17.0,22.0,202412.0
109187.57104492188,2191.0,16.0,20.0,202410.0
109206.25366210938,2192.0,13.0,13.0,202403.0
109224.93627929688,2193.0,7.0,4.0,202394.0
109243.61889648438,2194.0,0.0,-6.0,202384.0
109262.30151367188,2195.0,-6.0,-15.0,202375.0
109280.98388671875,2196.0,-11.0,-21.0,202369.0
109299.66650390625,2197.0,-14.0,-25.0,202365.0
109318.34912109375,2198.0,-11.0,-25.0,202365.0
109337.03173828125,2199.0,-5.0,-22.0,202368.0
109355.71435546875,2200.0,3.0,-16.0,202374.0
109374.39697265625,2201.0,12.0,-9.0,202381.0
109393.07958984375,2202.0,19.0,-3.0,202387.0
109411.76220703125,2203.0,22.0,2.0,202392.0
109430.44482421875,2204.0,25.0,6.0,202396.0
109449.12744140625,2205.0,27.0,10.0,202400.0
109467.81005859375,2206.0,29.0,14.0,202404.0
109486.49267578125,2207.0,30.0,18.0,202408.0
109505.17529296875,2208.0,32.0,18.0,202408.0
109523.85766601562,2209.0,32.0,17.0,202407.0
109542.54028320312,2210.0,30.0,14.0,202404.0
109561.22290039062,2211.0,27.0,9.0,202399.0
109579.90551757812,2212.0,23.0,5.0,202395.0
109598.58813476562,2213.0,16.0,1.0,202391.0
109617.27075195312,2214.0,11.0,-1.0,202389.0
109635.95336914062,2215.0,7.0,-1.0,202389.0
109654.63598632812,2216.0,5.0,1.0,202391.0
109673.31860351562,2217.0,4.0,3.0,202393.0
109692.00122070312,2218.0,5.0,6.0,202396.0
109710.68383789062,2219.0,8.0,9.0,202399.0
109729.36645507812,2220.0,11.0,12.0,202402.0
109748.048828125,2221.0,15.0,15.0,202405.0
109766.7314453125,2222.0,19.0,17.0,202407.0
109785.4140625,2223.0,24.0,19.0,202409.0
109804.0966796875,2224.0,29.0,22.0,202412.0
109822.779296875,2225.0,34.0,25.0,202415.0
109841.4619140625,2226.0,37.0,27.0,202417.0
109860.14453125,2227.0,40.0,30.0,202420.0
109878.8271484375,2228.0,41.0,32.0,202422.0
109897.509765625,2229.0,42.0,31.0,202421.0
109916.1923828125,2230.0,42.0,31.0,202421.0
109934.875,2231.0,43.0,31.0,202421.0
109953.5576171875,2232.0,41.0,29.0,202419.0
109972.23999023438,2233.0,39.0,28.0,202418.0
109990.92260742188,2234.0,33.0,25.0,202415.0
110009.60522460938,2235.0,25.0,18.0,202408.0
110028.28784179688,2236.0,13.0,7.0,202397.0
110046.97045898438,2237.0,-3.0,-6.0,202384.0
110065.65307617188,2238.0,-17.0,-20.0,202370.0
110084.33569335938,2239.0,-28.0,-30.0,202360.0
110103.01831054688,2240.0,-34.0,-35.0,202355.0
110121.70092773438,2241.0,-34.0,-37.0,202353.0
110140.38354492188,2242.0,-34.0,-35.0,202355.0
110159.06616210938,2243.0,-32.0,-31.0,202359.0
110177.74877929688,2244.0,-28.0,-26.0,202364.0
110196.43139648438,2245.0,-23.0,-20.0,202370.0
110215.11376953125,2246.0,-17.0,-15.0,202375.0
110233.79638671875,2247.0,-11.0,-10.0,202380.0
110252.47900390625,2248.0,-7.0,-6.0,202384.0
110271.16162109375,2249.0,-7.0,-4.0,202386.0
110289.84423828125,2250.0,-8.0,-2.0,202388.0
110308.52685546875,2251.0,-9.0,-1.0,202389.0
110327.20947265625,2252.0,-8.0,0.0,202390.0
110345.89208984375,2253.0,-5.0,0.0,202390.0
110364.57470703125,2254.0,-3.0,-1.0,202389.0
110383.25732421875,2255.0,-3.0,-4.0,202386.0
110401.93994140625,2256.0,-3.0,-7.0,202383.0
110420.62255859375,2257.0,-4.0,-9.0,202381.0
110439.30493164062,2258.0,-3.0,-9.0,202381.0
110457.98754882812,2259.0,-1.0,-8.0,202382.0
110476.67016601562,2260.0,2.0,-6.0,202384.0
110495.35278320312,2261.0,6.0,-4.0,202386.0
110514.03540039062,2262.0,9.0,-1.0,202389.0
110532.71801757812,2263.0,12.0,2.0,202392.0
110551.40063476562,2264.0,14.0,5.0,202395.0
110570.08325195312,2265.0,15.0,8.0,202398.0
110588.76586914062,2266.0,18.0,12.0,202402.0
110607.44848632812,2267.0,21.0,14.0,202404.0
110626.13110351562,2268.0,23.0,15.0,202405.0
110644.81372070312,2269.0,25.0,16.0,202406.0
110663.49609375,2270.0,27.0,17.0,202407.0
110682.1787109375,2271.0,28.0,18.0,202408.0
110700.861328125,2272.0,30.0,19.0,202409.0
110719.5439453125,2273.0,32.0,20.0,202410.0
110738.2265625,2274.0,31.0,20.0,202410.0
110756.9091796875,2275.0,29.0,20.0,202410.0
110775.591796875,2276.0,24.0,16.0,202406.0
110794.2744140625,2277.0,16.0,8.0,202398.0
110812.95703125,2278.0,7.0,-2.0,202388.0
110831.6396484375,2279.0,-1.0,-12.0,202378.0
110850.322265625,2280.0,-8.0,-19.0,202371.0
110869.0048828125,2281.0,-13.0,-24.0,202366.0
110887.6875,2282.0,-15.0,-25.0,202365.0
110906.36987304688,2283.0,-12.0,-22.0,202368.0
110925.05249023438,2284.0,-6.0,-18.0,202372.0
110943.73510742188,2285.0,1.0,-12.0,202378.0
110962.41772460938,2286.0,8.0,-6.0,202384.0
110981.10034179688,2287.0,12.0,-1.0,202389.0
110999.78295898438,2288.0,15.0,3.0,202393.0
111018.46557617188,2289.0,17.0,6.0,202396.0
111037.14819335938,2290.0,19.0,9.0,202399.0
111055.83081054688,2291.0,22.0,10.0,202400.0
111074.51342773438,2292.0,24.0,11.0,202401.0
111093.19604492188,2293.0,25.0,12.0,202402.0
111111.87866210938,2294.0,24.0,11.0,202401.0
111130.56103515625,2295.0,21.0,9.0,202399.0
111149.24365234375,2296.0,17.0,6.0,202396.0
111167.92626953125,2297.0,14.0,3.0,202393.0
111186.60888671875,2298.0,10.0,1.0,202391.0
111205.29150390625,2299.0,8.0,0.0,202390.0
111223.97412109375,2300.0,4.0,-1.0,202389.0
111242.65673828125,2301.0,-1.0,-2.0,202388.0
111261.33935546875,2302.0,-4.0,-1.0,202389.0
111280.02197265625,2303.0,-5.0,1.0,202391.0
111298.70458984375,2304.0,-4.0,3.0,202393.0
111317.38720703125,2305.0,-2.0,4.0,202394.0
111336.06982421875,2306.0,0.0,6.0,202396.0
111354.75244140625,2307.0,3.0,8.0,202398.0
111373.43481445312,2308.0,8.0,10.0,202400.0
111392.11743164062,2309.0,13.0,13.0,202403.0
111410.80004882812,2310.0,16.0,15.0,202405.0
111429.48266601562,2311.0,17.0,18.0,202408.0
111448.16528320312,2312.0,20.0,22.0,202412.0
111466.84790039062,2313.0,22.0,24.0,202414.0
111485.53051757812,2314.0,26.0,26.0,202416.0
111504.21313476562,2315.0,29.0,27.0,202417.0
111522.89575195312,2316.0,32.0,26.0,202416.0
111541.57836914062,2317.0,31.0,22.0,202412.0
111560.26098632812,2318.0,26.0,15.0,202405.0
111578.94360351562,2319.0,18.0,4.0,202394.0
111597.6259765625,2320.0,7.0,-8.0,202382.0
111616.30859375,2321.0,-1.0,-18.0,202372.0
111634.9912109375,2322.0,-7.0,-24.0,202366.0
111653.673828125,2323.0,-10.0,-27.0,202363.0
111672.3564453125,2324.0,-11.0,-26.0,202364.0
111691.0390625,2325.0,-9.0,-23.0,202367.0
111709.7216796875,2326.0,-7.0,-19.0,202371.0
111728.404296875,2327.0,-4.0,-13.0,202377.0
111747.0869140625,2328.0,0.0,-7.0,202383.0
111765.76953125,2329.0,3.0,-2.0,202388.0
111784.4521484375,2330.0,4.0,2.0,202392.0
111803.134765625,2331.0,5.0,4.0,202394.0
111821.81713867188,2332.0,5.0,6.0,202396.0
111840.49975585938,2333.0,4.0,7.0,202397.0
111859.18237304688,2334.0,3.0,7.0,202397.0
111877.86499023438,2335.0,1.0,8.0,202398.0
111896.54760742188,2336.0,0.0,7.0,202397.0
111915.23022460938,2337.0,-1.0,5.0,202395.0
111933.91284179688,2338.0,-4.0,1.0,202391.0
111952.59545898438,2339.0,-6.0,-2.0,202388.0
111971.27807617188,2340.0,-7.0,-4.0,202386.0
111989.96069335938,2341.0,-7.0,-5.0,202385.0
112008.64331054688,2342.0,-5.0,-4.0,202386.0
112027.32592773438,2343.0,-2.0,-3.0,202387.0
112046.00854492188,2344.0,1.0,-2.0,202388.0
112064.69091796875,2345.0,3.0,1.0,202391.0
112083.37353515625,2346.0,3.0,3.0,202393.0
112102.05615234375,2347.0,3.0,5.0,202395.0
112120.73876953125,2348.0,3.0,7.0,202397.0
112139.42138671875,2349.0,2.0,8.0,202398.0
112158.10400390625,2350.0,2.0,9.0,202399.0
112176.78662109375,2351.0,2.0,11.0,202401.0
112195.46923828125,2352.0,3.0,14.0,202404.0
112214.15185546875,2353.0,6.0,18.0,202408.0
112232.83447265625,2354.0,8.0,20.0,202410.0
112251.51708984375,2355.0,10.0,21.0,202411.0
112270.19970703125,2356.0,11.0,22.0,202412.0
112288.88208007812,2357.0,10.0,23.0,202413.0
112307.56469726562,2358.0,9.0,23.0,202413.0
112326.24731445312,2359.0,9.0,21.0,202411.0
112344.92993164062,2360.0,8.0,16.0,202406.0
112363.61254882812,2361.0,5.0,7.0,202397.0
112382.29516601562,2362.0,-1.0,-4.0,202386.0
112400.97778320312,2363.0,-7.0,-14.0,202376.0
112419.66040039062,2364.0,-12.0,-22.0,202368.0
112438.34301757812,2365.0,-14.0,-27.0,202363.0
112457.02563476562,2366.0,-14.0,-27.0,202363.0
112475.70825195312,2367.0,-11.0,-25.0,202365.0
112494.39086914062,2368.0,-7.0,-20.0,202370.0
112513.0732421875,2369.0,-1.0,-15.0,202375.0
112531.755859375,2370.0,6.0,-8.0,202382.0
112550.4384765625,2371.0,11.0,-3.0,202387.0
112569.12109375,2372.0,14.0,1.0,202391.0
112587.8037109375,2373.0,15.0,4.0,202394.0
112606.486328125,2374.0,12.0,5.0,202395.0
112625.1689453125,2375.0,8.0,4.0,202394.0
112643.8515625,2376.0,5.0,4.0,202394.0
112662.5341796875,2377.0,2.0,5.0,202395.0
112681.216796875,2378.0,0.0,5.0,202395.0
112699.8994140625,2379.0,-2.0,4.0,202394.0
112718.58203125,2380.0,-4.0,0.0,202390.0
112737.2646484375,2381.0,-5.0,-3.0,202387.0
112755.94702148438,2382.0,-6.0,-5.0,202385.0
112774.62963867188,2383.0,-5.0,-7.0,202383.0
112793.31225585938,2384.0,-4.0,-6.0,202384.0
112811.99487304688,2385.0,-2.0,-4.0,202386.0
112830.67749023438,2386.0,-1.0,0.0,202390.0
112849.36010742188,2387.0,-1.0,3.0,202393.0
112868.04272460938,2388.0,1.0,7.0,202397.0
112886.72534179688,2389.0,3.0,9.0,202399.0
112905.40795898438,2390.0,4.0,11.0,202401.0
112924.09057617188,2391.0,6.0,12.0,202402.0
112942.77319335938,2392.0,9.0,12.0,202402.0
112961.45581054688,2393.0,11.0,13.0,202403.0
112980.13818359375,2394.0,13.0,15.0,202405.0
112998.82080078125,2395.0,12.0,16.0,202406.0
113017.50341796875,2396.0,10.0,18.0,202408.0
113036.18603515625,2397.0,10.0,19.0,202409.0
113054.86865234375,2398.0,10.0,19.0,202409.0
113073.55126953125,2399.0,9.0,20.0,202410.0
113092.23388671875,2400.0,10.0,22.0,202412.0
113110.91650390625,2401.0,12.0,22.0,202412.0
113129.59912109375,2402.0,12.0,20.0,202410.0
113148.28173828125,2403.0,9.0,17.0,202407.0
113166.96435546875,2404.0,2.0,8.0,202398.0
113185.64697265625,2405.0,-8.0,-4.0,202386.0
113204.32958984375,2406.0,-19.0,-16.0,202374.0
113223.01196289062,2407.0,-27.0,-26.0,202364.0
113241.69458007812,2408.0,-32.0,-32.0,202358.0
113260.37719726562,2409.0,-31.0,-32.0,202358.0
113279.05981445312,2410.0,-28.0,-29.0,202361.0
113297.74243164062,2411.0,-20.0,-22.0,202368.0
113316.42504882812,2412.0,-10.0,-17.0,202373.0
113335.10766601562,2413.0,-3.0,-13.0,202377.0
113353.79028320312,2414.0,2.0,-10.0,202380.0
113372.47290039062,2415.0,6.0,-8.0,202382.0
113391.15551757812,2416.0,9.0,-5.0,202385.0
113409.83813476562,2417.0,11.0,-3.0,202387.0
113428.52075195312,2418.0,11.0,-1.0,202389.0
113447.203125,2419.0,12.0,1.0,202391.0
113465.8857421875,2420.0,12.0,4.0,202394.0
113484.568359375,2421.0,14.0,5.0,202395.0
113503.2509765625,2422.0,14.0,4.0,202394.0
113521.93359375,2423.0,13.0,2.0,202392.0
113540.6162109375,2424.0,10.0,-2.0,202388.0
113559.298828125,2425.0,7.0,-6.0,202384.0
113577.9814453125,2426.0,6.0,-8.0,202382.0
113596.6640625,2427.0,5.0,-9.0,202381.0
113615.3466796875,2428.0,5.0,-7.0,202383.0
113634.029296875,2429.0,5.0,-6.0,202384.0
113652.7119140625,2430.0,8.0,-4.0,202386.0
113671.39428710938,2431.0,12.0,0.0,202390.0
113690.07690429688,2432.0,15.0,3.0,202393.0
113708.75952148438,2433.0,16.0,7.0,202397.0
113727.44213867188,2434.0,17.0,10.0,202400.0
113746.12475585938,2435.0,17.0,14.0,202404.0
113764.80737304688,2436.0,18.0,16.0,202406.0
113783.48999023438,2437.0,20.0,20.0,202410.0
113802.17260742188,2438.0,24.0,23.0,202413.0
113820.85522460938,2439.0,29.0,26.0,202416.0
113839.53784179688,2440.0,33.0,26.0,202416.0
113858.22045898438,2441.0,37.0,26.0,202416.0
113876.90307617188,2442.0,39.0,25.0,202415.0
113895.58569335938,2443.0,36.0,19.0,202409.0
113914.26806640625,2444.0,27.0,9.0,202399.0
113932.95068359375,2445.0,14.0,-4.0,202386.0
113951.63330078125,2446.0,2.0,-15.0,202375.0
113970.31591796875,2447.0,-9.0,-25.0,202365.0
113988.99853515625,2448.0,-17.0,-30.0,202360.0
114007.68115234375,2449.0,-19.0,-33.0,202357.0
114026.36376953125,2450.0,-17.0,-31.0,202359.0
114045.04638671875,2451.0,-12.0,-26.0,202364.0
114063.72900390625,2452.0,-5.0,-20.0,202370.0
114082.41162109375,2453.0,1.0,-15.0,202375.0
114101.09423828125,2454.0,7.0,-9.0,202381.0
114119.77685546875,2455.0,13.0,-5.0,202385.0
114138.45922851562,2456.0,18.0,-1.0,202389.0
114157.14184570312,2457.0,21.0,2.0,202392.0
114175.82446289062,2458.0,22.0,4.0,202394.0
114194.50708007812,2459.0,24.0,7.0,202397.0
114213.18969726562,2460.0,26.0,10.0,202400.0
114231.87231445312,2461.0,25.0,10.0,202400.0
114250.55493164062,2462.0,21.0,7.0,202397.0
114269.23754882812,2463.0,17.0,3.0,202393.0
114287.92016601562,2464.0,15.0,-1.0,202389.0
114306.60278320312,2465.0,13.0,-4.0,202386.0
114325.28540039062,2466.0,12.0,-6.0,202384.0
114343.96801757812,2467.0,10.0,-7.0,202383.0
114362.650390625,2468.0,11.0,-6.0,202384.0
114381.3330078125,2469.0,12.0,-5.0,202385.0
114400.015625,2470.0,14.0,-2.0,202388.0
114418.6982421875,2471.0,16.0,1.0,202391.0
114437.380859375,2472.0,18.0,4.0,202394.0
114456.0634765625,2473.0,20.0,7.0,202397.0
114474.74609375,2474.0,22.0,9.0,202399.0
114493.4287109375,2475.0,25.0,11.0,202401.0
114512.111328125,2476.0,27.0,12.0,202402.0
114530.7939453125,2477.0,27.0,13.0,202403.0
114549.4765625,2478.0,28.0,14.0,202404.0
114568.1591796875,2479.0,29.0,15.0,202405.0
114586.841796875,2480.0,31.0,16.0,202406.0
114605.52416992188,2481.0,31.0,16.0,202406.0
114624.20678710938,2482.0,32.0,15.0,202405.0
114642.88940429688,2483.0,32.0,13.0,202403.0
114661.57202148438,2484.0,30.0,8.0,202398.0
114680.25463867188,2485.0,25.0,-1.0,202389.0
114698.93725585938,2486.0,16.0,-12.0,202378.0
114717.61987304688,2487.0,8.0,-23.0,202367.0
114736.30249023438,2488.0,1.0,-31.0,202359.0
114754.98510742188,2489.0,-3.0,-35.0,202355.0
114773.66772460938,2490.0,-5.0,-37.0,202353.0
114792.35034179688,2491.0,-5.0,-35.0,202355.0
114811.03295898438,2492.0,-4.0,-30.0,202360.0
114829.71533203125,2493.0,-2.0,-24.0,202366.0
114848.39794921875,2494.0,0.0,-17.0,202373.0
114867.08056640625,2495.0,2.0,-11.0,202379.0
114885.76318359375,2496.0,7.0,-6.0,202384.0
114904.44580078125,2497.0,14.0,-1.0,202389.0
114923.12841796875,2498.0,21.0,2.0,202392.0
114941.81103515625,2499.0,28.0,6.0,202396.0
114960.49365234375,2500.0,31.0,8.0,202398.0
114979.17626953125,2501.0,31.0,9.0,202399.0
114997.85888671875,2502.0,29.0,9.0,202399.0
115016.54150390625,2503.0,26.0,7.0,202397.0
115035.22412109375,2504.0,21.0,4.0,202394.0
115053.90649414062,2505.0,17.0,1.0,202391.0
115072.58911132812,2506.0,14.0,-2.0,202388.0
115091.27172851562,2507.0,12.0,-3.0,202387.0
115109.95434570312,2508.0,10.0,-3.0,202387.0
115128.63696289062,2509.0,11.0,-1.0,202389.0
115147.31958007812,2510.0,13.0,2.0,202392.0
115166.00219726562,2511.0,17.0,4.0,202394.0
115184.68481445312,2512.0,21.0,6.0,202396.0
115203.36743164062,2513.0,24.0,7.0,202397.0
115222.05004882812,2514.0,25.0,7.0,202397.0
115240.73266601562,2515.0,26.0,8.0,202398.0
115259.41528320312,2516.0,27.0,8.0,202398.0
115278.09790039062,2517.0,26.0,11.0,202401.0
115296.7802734375,2518.0,26.0,14.0,202404.0
115315.462890625,2519.0,26.0,16.0,202406.0
115334.1455078125,2520.0,27.0,17.0,202407.0
115352.828125,2521.0,27.0,18.0,202408.0
115371.5107421875,2522.0,28.0,18.0,202408.0
115390.193359375,2523.0,29.0,17.0,202407.0
115408.8759765625,2524.0,27.0,16.0,202406.0
115427.55859375,2525.0,24.0,12.0,202402.0
115446.2412109375,2526.0,17.0,4.0,202394.0
115464.923828125,2527.0,7.0,-6.0,202384.0
115483.6064453125,2528.0,-4.0,-17.0,202373.0
115502.2890625,2529.0,-10.0,-26.0,202364.0
115520.97143554688,2530.0,-15.0,-32.0,202358.0
115539.65405273438,2531.0,-17.0,-33.0,202357.0
115558.33666992188,2532.0,-16.0,-31.0,202359.0
115577.01928710938,2533.0,-13.0,-25.0,202365.0
115595.70190429688,2534.0,-11.0,-19.0,202371.0
115614.38452148438,2535.0,-10.0,-15.0,202375.0
115633.06713867188,2536.0,-10.0,-12.0,202378.0
115651.74975585938,2537.0,-9.0,-10.0,202380.0
115670.43237304688,2538.0,-7.0,-9.0,202381.0
115689.11499023438,2539.0,-5.0,-7.0,202383.0
115707.79760742188,2540.0,-2.0,-6.0,202384.0
115726.48022460938,2541.0,0.0,-5.0,202385.0
115745.16284179688,2542.0,1.0,-6.0,202384.0
115763.84521484375,2543.0,1.0,-7.0,202383.0
115782.52783203125,2544.0,1.0,-9.0,202381.0
115801.21044921875,2545.0,-1.0,-12.0,202378.0
115819.89306640625,2546.0,-3.0,-15.0,202375.0
115838.57568359375,2547.0,-6.0,-18.0,202372.0
115857.25830078125,2548.0,-9.0,-20.0,202370.0
115875.94091796875,2549.0,-11.0,-21.0,202369.0
115894.62353515625,2550.0,-13.0,-22.0,202368.0
115913.30615234375,2551.0,-13.0,-20.0,202370.0
115931.98876953125,2552.0,-12.0,-17.0,202373.0
115950.67138671875,2553.0,-11.0,-14.0,202376.0
115969.35400390625,2554.0,-8.0,-11.0,202379.0
115988.03637695312,2555.0,-4.0,-8.0,202382.0
116006.71899414062,2556.0,-1.0,-6.0,202384.0
116025.40161132812,2557.0,2.0,-4.0,202386.0
116044.08422851562,2558.0,5.0,-3.0,202387.0
116062.76684570312,2559.0,8.0,-1.0,202389.0
116081.44946289062,2560.0,9.0,0.0,202390.0
116100.13208007812,2561.0,8.0,1.0,202391.0
116118.81469726562,2562.0,7.0,3.0,202393.0
116137.49731445312,2563.0,7.0,3.0,202393.0
116156.17993164062,2564.0,6.0,2.0,202392.0
116174.86254882812,2565.0,3.0,2.0,202392.0
116193.54516601562,2566.0,-1.0,0.0,202390.0
116212.2275390625,2567.0,-6.0,-4.0,202386.0
116230.91015625,2568.0,-12.0,-11.0,202379.0
116249.5927734375,2569.0,-20.0,-20.0,202370.0
116268.275390625,2570.0,-29.0,-30.0,202360.0
116286.9580078125,2571.0,-39.0,-39.0,202351.0
116305.640625,2572.0,-43.0,-45.0,202345.0
116324.3232421875,2573.0,-45.0,-49.0,202341.0
116343.005859375,2574.0,-42.0,-49.0,202341.0
116361.6884765625,2575.0,-39.0,-47.0,202343.0
116380.37109375,2576.0,-35.0,-42.0,202348.0
116399.0537109375,2577.0,-30.0,-37.0,202353.0
116417.736328125,2578.0,-23.0,-32.0,202358.0
116436.4189453125,2579.0,-17.0,-28.0,202362.0
116455.10131835938,2580.0,-12.0,-23.0,202367.0
116473.78393554688,2581.0,-9.0,-18.0,202372.0
116492.46655273438,2582.0,-6.0,-15.0,202375.0
116511.14916992188,2583.0,-3.0,-12.0,202378.0
116529.83178710938,2584.0,-2.0,-10.0,202380.0
116548.51440429688,2585.0,-1.0,-9.0,202381.0
116567.19702148438,2586.0,-3.0,-11.0,202379.0
116585.87963867188,2587.0,-7.0,-13.0,202377.0
116604.56225585938,2588.0,-11.0,-17.0,202373.0
116623.24487304688,2589.0,-15.0,-20.0,202370.0
116641.92749023438,2590.0,-18.0,-22.0,202368.0
116660.61010742188,2591.0,-19.0,-23.0,202367.0
116679.29248046875,2592.0,-18.0,-21.0,202369.0
116697.97509765625,2593.0,-14.0,-19.0,202371.0
116716.65771484375,2594.0,-12.0,-17.0,202373.0
116735.34033203125,2595.0,-12.0,-15.0,202375.0
116754.02294921875,2596.0,-13.0,-12.0,202378.0
116772.70556640625,2597.0,-15.0,-11.0,202379.0
116791.38818359375,2598.0,-14.0,-9.0,202381.0
116810.07080078125,2599.0,-11.0,-8.0,202382.0
116828.75341796875,2600.0,-5.0,-5.0,202385.0
116847.43603515625,2601.0,4.0,-1.0,202389.0
116866.11865234375,2602.0,13.0,3.0,202393.0
116884.80126953125,2603.0,22.0,6.0,202396.0
116903.48364257812,2604.0,27.0,8.0,202398.0
116922.16625976562,2605.0,28.0,7.0,202397.0
116940.84887695312,2606.0,24.0,3.0,202393.0
116959.53149414062,2607.0,14.0,-4.0,202386.0
116978.21411132812,2608.0,3.0,-14.0,202376.0
116996.89672851562,2609.0,-7.0,-23.0,202367.0
117015.57934570312,2610.0,-13.0,-30.0,202360.0
117034.26196289062,2611.0,-15.0,-33.0,202357.0
