timestamp,sampleNum,BIOZI,BIOZQ,BIOZ
46825.682861328125,1.0,168706.0,-74873.0,126634.0
46844.36572265625,2.0,250025.0,-117548.0,83959.0
46863.048583984375,3.0,316192.0,-152949.0,48558.0
46881.7314453125,4.0,362284.0,-178060.0,23447.0
46900.4140625,5.0,389359.0,-193170.0,8337.0
46919.096923828125,6.0,401302.0,-200190.0,1317.0
46937.77978515625,7.0,402738.0,-201507.0,0.0
46956.462646484375,8.0,397853.0,-199335.0,2172.0
46975.1455078125,9.0,389876.0,-195406.0,6101.0
46993.828369140625,10.0,380988.0,-190903.0,10604.0
47012.51123046875,11.0,372459.0,-186532.0,14975.0
47031.194091796875,12.0,364871.0,-182627.0,18880.0
47049.876708984375,13.0,358362.0,-179280.0,22227.0
47068.5595703125,14.0,352822.0,-176442.0,25065.0
47087.242431640625,15.0,348034.0,-174002.0,27505.0
47105.92529296875,16.0,343763.0,-171841.0,29666.0
47124.608154296875,17.0,339809.0,-169852.0,31655.0
47143.291015625,18.0,336021.0,-167958.0,33549.0
47161.973876953125,19.0,332302.0,-166105.0,35402.0
47180.65673828125,20.0,328601.0,-164263.0,37244.0
47199.339599609375,21.0,324896.0,-162420.0,39087.0
47218.022216796875,22.0,321186.0,-160574.0,40933.0
47236.705078125,23.0,317478.0,-158725.0,42782.0
47255.387939453125,24.0,313783.0,-156881.0,44626.0
47274.07080078125,25.0,310113.0,-155046.0,46461.0
47292.753662109375,26.0,306476.0,-153225.0,48282.0
47311.4365234375,27.0,302878.0,-151420.0,50087.0
47330.119384765625,28.0,299320.0,-149636.0,51871.0
47348.80224609375,29.0,295806.0,-147875.0,53632.0
47367.48486328125,30.0,292334.0,-146136.0,55371.0
47386.167724609375,31.0,288906.0,-144419.0,57088.0
47404.8505859375,32.0,285520.0,-142724.0,58783.0
47423.533447265625,33.0,282173.0,-141053.0,60454.0
47442.21630859375,34.0,278862.0,-139407.0,62100.0
47460.899169921875,35.0,275586.0,-137784.0,63723.0
47479.58203125,36.0,272347.0,-136182.0,65325.0
47498.264892578125,37.0,269146.0,-134597.0,66910.0
47516.947509765625,38.0,265985.0,-133029.0,68478.0
47535.63037109375,39.0,262863.0,-131473.0,70034.0
47554.313232421875,40.0,259781.0,-129932.0,71575.0
47572.99609375,41.0,256737.0,-128406.0,73101.0
47591.678955078125,42.0,253733.0,-126895.0,74612.0
47610.36181640625,43.0,250764.0,-125401.0,76106.0
47629.044677734375,44.0,247832.0,-123925.0,77582.0
47647.7275390625,45.0,244931.0,-122469.0,79038.0
47666.410400390625,46.0,242064.0,-121030.0,80477.0
47685.093017578125,47.0,239228.0,-119610.0,81897.0
47703.77587890625,48.0,236425.0,-118207.0,83300.0
47722.458740234375,49.0,233655.0,-116821.0,84686.0
47741.1416015625,50.0,230920.0,-115451.0,86056.0
47759.824462890625,51.0,228217.0,-114096.0,87411.0
47778.50732421875,52.0,225546.0,-112757.0,88750.0
47797.190185546875,53.0,222905.0,-111434.0,90073.0
47815.873046875,54.0,220293.0,-110128.0,91379.0
47834.5556640625,55.0,217711.0,-108840.0,92667.0
47853.238525390625,56.0,215158.0,-107566.0,93941.0
47871.92138671875,57.0,212636.0,-106307.0,95200.0
47890.604248046875,58.0,210146.0,-105060.0,96447.0
47909.287109375,59.0,207687.0,-103827.0,97680.0
47927.969970703125,60.0,205257.0,-102608.0,98899.0
47946.65283203125,61.0,202856.0,-101403.0,100104.0
47965.335693359375,62.0,200482.0,-100211.0,101296.0
47984.0185546875,63.0,198138.0,-99033.0,102474.0
48002.701171875,64.0,195822.0,-97869.0,103638.0
48021.384033203125,65.0,193532.0,-96719.0,104788.0
48040.06689453125,66.0,191268.0,-95583.0,105924.0
48058.749755859375,67.0,189028.0,-94462.0,107045.0
48077.4326171875,68.0,186810.0,-93359.0,108148.0
48096.115478515625,69.0,184613.0,-92274.0,109233.0
48114.79833984375,70.0,182439.0,-91204.0,110303.0
48133.481201171875,71.0,180290.0,-90146.0,111361.0
48152.163818359375,72.0,178169.0,-89097.0,112410.0
48170.8466796875,73.0,176077.0,-88058.0,113449.0
48189.529541015625,74.0,174012.0,-87028.0,114479.0
48208.21240234375,75.0,171973.0,-86006.0,115501.0
48226.895263671875,76.0,169960.0,-84995.0,116512.0
48245.578125,77.0,167973.0,-83994.0,117513.0
48264.260986328125,78.0,166010.0,-83004.0,118503.0
48282.94384765625,79.0,164072.0,-82027.0,119480.0
48301.626708984375,80.0,162155.0,-81061.0,120446.0
48320.309326171875,81.0,160258.0,-80109.0,121398.0
48338.9921875,82.0,158381.0,-79169.0,122338.0
48357.675048828125,83.0,156525.0,-78239.0,123268.0
48376.35791015625,84.0,154692.0,-77320.0,124187.0
48395.040771484375,85.0,152881.0,-76412.0,125095.0
48413.7236328125,86.0,151092.0,-75515.0,125992.0
48432.406494140625,87.0,149323.0,-74629.0,126878.0
48451.08935546875,88.0,147572.0,-73756.0,127751.0
48469.77197265625,89.0,145840.0,-72893.0,128614.0
48488.454833984375,90.0,144126.0,-72038.0,129469.0
48507.1376953125,91.0,142433.0,-71195.0,130312.0
48525.820556640625,92.0,140761.0,-70361.0,131146.0
48544.50341796875,93.0,139110.0,-69535.0,131972.0
48563.186279296875,94.0,137479.0,-68718.0,132789.0
48581.869140625,95.0,135870.0,-67909.0,133598.0
48600.552001953125,96.0,134282.0,-67109.0,134398.0
48619.234619140625,97.0,132714.0,-66321.0,135186.0
48637.91748046875,98.0,131163.0,-65542.0,135965.0
48656.600341796875,99.0,129630.0,-64772.0,136735.0
48675.283203125,100.0,128113.0,-64011.0,137496.0
48693.966064453125,101.0,126613.0,-63260.0,138247.0
48712.64892578125,102.0,125125.0,-62520.0,138987.0
48731.331787109375,103.0,123652.0,-61792.0,139715.0
48750.0146484375,104.0,122191.0,-61077.0,140430.0
48768.697509765625,105.0,120747.0,-60373.0,141134.0
48787.380126953125,106.0,119321.0,-59678.0,141829.0
48806.06298828125,107.0,117918.0,-58988.0,142519.0
48824.745849609375,108.0,116534.0,-58301.0,143206.0
48843.4287109375,109.0,115171.0,-57619.0,143888.0
48862.111572265625,110.0,113826.0,-56941.0,144566.0
48880.79443359375,111.0,112496.0,-56269.0,145238.0
48899.477294921875,112.0,111181.0,-55604.0,145903.0
48918.16015625,113.0,109880.0,-54948.0,146559.0
48936.8427734375,114.0,108595.0,-54300.0,147207.0
48955.525634765625,115.0,107323.0,-53660.0,147847.0
48974.20849609375,116.0,106069.0,-53029.0,148478.0
48992.891357421875,117.0,104828.0,-52406.0,149101.0
49011.57421875,118.0,103602.0,-51790.0,149717.0
49030.257080078125,119.0,102390.0,-51181.0,150326.0
49048.93994140625,120.0,101191.0,-50578.0,150929.0
49067.622802734375,121.0,100005.0,-49982.0,151525.0
49086.3056640625,122.0,98832.0,-49396.0,152111.0
49104.98828125,123.0,97674.0,-48818.0,152689.0
49123.671142578125,124.0,96529.0,-48247.0,153260.0
49142.35400390625,125.0,95396.0,-47683.0,153824.0
49161.036865234375,126.0,94277.0,-47125.0,154382.0
49179.7197265625,127.0,93173.0,-46571.0,154936.0
49198.402587890625,128.0,92082.0,-46024.0,155483.0
49217.08544921875,129.0,91006.0,-45482.0,156025.0
49235.768310546875,130.0,89943.0,-44947.0,156560.0
49254.450927734375,131.0,88892.0,-44419.0,157088.0
49273.1337890625,132.0,87853.0,-43897.0,157610.0
49291.816650390625,133.0,86822.0,-43381.0,158126.0
49310.49951171875,134.0,85803.0,-42870.0,158637.0
49329.182373046875,135.0,84797.0,-42366.0,159141.0
49347.865234375,136.0,83801.0,-41868.0,159639.0
49366.548095703125,137.0,82814.0,-41380.0,160127.0
49385.23095703125,138.0,81836.0,-40902.0,160605.0
49403.913818359375,139.0,80867.0,-40432.0,161075.0
49422.596435546875,140.0,79909.0,-39970.0,161537.0
49441.279296875,141.0,78966.0,-39510.0,161997.0
49459.962158203125,142.0,78036.0,-39052.0,162455.0
49478.64501953125,143.0,77122.0,-38597.0,162910.0
49497.327880859375,144.0,76221.0,-38142.0,163365.0
49516.0107421875,145.0,75333.0,-37691.0,163816.0
49534.693603515625,146.0,74454.0,-37246.0,164261.0
49553.37646484375,147.0,73587.0,-36805.0,164702.0
49572.05908203125,148.0,72728.0,-36371.0,165136.0
49590.741943359375,149.0,71879.0,-35941.0,165566.0
49609.4248046875,150.0,71039.0,-35517.0,165990.0
49628.107666015625,151.0,70207.0,-35100.0,166407.0
49646.79052734375,152.0,69385.0,-34688.0,166819.0
49665.473388671875,153.0,68573.0,-34280.0,167227.0
49684.15625,154.0,67773.0,-33878.0,167629.0
49702.839111328125,155.0,66981.0,-33481.0,168026.0
49721.521728515625,156.0,66197.0,-33088.0,168419.0
49740.20458984375,157.0,65421.0,-32700.0,168807.0
49758.887451171875,158.0,64654.0,-32317.0,169190.0
49777.5703125,159.0,63898.0,-31938.0,169569.0
49796.253173828125,160.0,63149.0,-31564.0,169943.0
49814.93603515625,161.0,62410.0,-31194.0,170313.0
49833.618896484375,162.0,61679.0,-30828.0,170679.0
49852.3017578125,163.0,60959.0,-30465.0,171042.0
49870.984619140625,164.0,60246.0,-30105.0,171402.0
49889.667236328125,165.0,59544.0,-29749.0,171758.0
49908.35009765625,166.0,58852.0,-29397.0,172110.0
49927.032958984375,167.0,58167.0,-29051.0,172456.0
49945.7158203125,168.0,57488.0,-28709.0,172798.0
49964.398681640625,169.0,56815.0,-28372.0,173135.0
49983.08154296875,170.0,56146.0,-28042.0,173465.0
50001.764404296875,171.0,55480.0,-27721.0,173786.0
50020.447265625,172.0,54820.0,-27408.0,174099.0
50039.1298828125,173.0,54165.0,-27098.0,174409.0
50057.812744140625,174.0,53518.0,-26792.0,174715.0
50076.49560546875,175.0,52881.0,-26485.0,175022.0
50095.178466796875,176.0,52254.0,-26178.0,175329.0
50113.861328125,177.0,51637.0,-25870.0,175637.0
50132.544189453125,178.0,51030.0,-25564.0,175943.0
50151.22705078125,179.0,50433.0,-25260.0,176247.0
50169.909912109375,180.0,49843.0,-24960.0,176547.0
50188.5927734375,181.0,49261.0,-24664.0,176843.0
50207.275390625,182.0,48686.0,-24372.0,177135.0
50225.958251953125,183.0,48116.0,-24085.0,177422.0
50244.64111328125,184.0,47552.0,-23802.0,177705.0
50263.323974609375,185.0,46995.0,-23522.0,177985.0
50282.0068359375,186.0,46447.0,-23244.0,178263.0
50300.689697265625,187.0,45907.0,-22970.0,178537.0
50319.37255859375,188.0,45373.0,-22698.0,178809.0
50338.055419921875,189.0,44844.0,-22431.0,179076.0
50356.738037109375,190.0,44321.0,-22169.0,179338.0
50375.4208984375,191.0,43802.0,-21909.0,179598.0
50394.103759765625,192.0,43290.0,-21651.0,179856.0
50412.78662109375,193.0,42785.0,-21395.0,180112.0
50431.469482421875,194.0,42287.0,-21142.0,180365.0
50450.15234375,195.0,41794.0,-20890.0,180617.0
50468.835205078125,196.0,41308.0,-20641.0,180866.0
50487.51806640625,197.0,40827.0,-20396.0,181111.0
50506.200927734375,198.0,40353.0,-20154.0,181353.0
50524.883544921875,199.0,39883.0,-19916.0,181591.0
50543.56640625,200.0,39417.0,-19682.0,181825.0
50562.249267578125,201.0,38958.0,-19450.0,182057.0
50580.93212890625,202.0,38501.0,-19223.0,182284.0
50599.614990234375,203.0,38047.0,-19003.0,182504.0
50618.2978515625,204.0,37595.0,-18788.0,182719.0
50636.980712890625,205.0,37146.0,-18578.0,182929.0
50655.66357421875,206.0,36704.0,-18369.0,183138.0
50674.34619140625,207.0,36269.0,-18161.0,183346.0
50693.029052734375,208.0,35842.0,-17951.0,183556.0
50711.7119140625,209.0,35425.0,-17740.0,183767.0
50730.394775390625,210.0,35014.0,-17529.0,183978.0
50749.07763671875,211.0,34608.0,-17319.0,184188.0
50767.760498046875,212.0,34206.0,-17112.0,184395.0
50786.443359375,213.0,33808.0,-16910.0,184597.0
50805.126220703125,214.0,33415.0,-16710.0,184797.0
50823.808837890625,215.0,33025.0,-16512.0,184995.0
50842.49169921875,216.0,32640.0,-16316.0,185191.0
50861.174560546875,217.0,32260.0,-16124.0,185383.0
50879.857421875,218.0,31885.0,-15934.0,185573.0
50898.540283203125,219.0,31514.0,-15745.0,185762.0
50917.22314453125,220.0,31147.0,-15558.0,185949.0
50935.906005859375,221.0,30784.0,-15374.0,186133.0
50954.5888671875,222.0,30423.0,-15192.0,186315.0
50973.271728515625,223.0,30066.0,-15013.0,186494.0
50991.954345703125,224.0,29712.0,-14835.0,186672.0
51010.63720703125,225.0,29364.0,-14660.0,186847.0
51029.320068359375,226.0,29020.0,-14486.0,187021.0
51048.0029296875,227.0,28682.0,-14313.0,187194.0
51066.685791015625,228.0,28348.0,-14142.0,187365.0
51085.36865234375,229.0,28019.0,-13973.0,187534.0
51104.051513671875,230.0,27693.0,-13806.0,187701.0
51122.734375,231.0,27370.0,-13641.0,187866.0
51141.4169921875,232.0,27049.0,-13479.0,188028.0
51160.099853515625,233.0,26731.0,-13321.0,188186.0
51178.78271484375,234.0,26417.0,-13166.0,188341.0
51197.465576171875,235.0,26105.0,-13015.0,188492.0
51216.1484375,236.0,25795.0,-12868.0,188639.0
51234.831298828125,237.0,25486.0,-12726.0,188781.0
51253.51416015625,238.0,25179.0,-12587.0,188920.0
51272.197021484375,239.0,24876.0,-12449.0,189058.0
51290.8798828125,240.0,24579.0,-12309.0,189198.0
51309.5625,241.0,24289.0,-12168.0,189339.0
51328.245361328125,242.0,24005.0,-12025.0,189482.0
51346.92822265625,243.0,23727.0,-11881.0,189626.0
51365.611083984375,244.0,23453.0,-11739.0,189768.0
51384.2939453125,245.0,23181.0,-11598.0,189909.0
51402.976806640625,246.0,22911.0,-11459.0,190048.0
51421.65966796875,247.0,22645.0,-11323.0,190184.0
51440.342529296875,248.0,22380.0,-11189.0,190318.0
51459.025146484375,249.0,22119.0,-11056.0,190451.0
51477.7080078125,250.0,21860.0,-10925.0,190582.0
51496.390869140625,251.0,21606.0,-10796.0,190711.0
51515.07373046875,252.0,21356.0,-10666.0,190841.0
51533.756591796875,253.0,21110.0,-10537.0,190970.0
51552.439453125,254.0,20869.0,-10410.0,191097.0
51571.122314453125,255.0,20628.0,-10286.0,191221.0
51589.80517578125,256.0,20390.0,-10164.0,191343.0
51608.488037109375,257.0,20151.0,-10043.0,191464.0
51627.170654296875,258.0,19914.0,-9924.0,191583.0
51645.853515625,259.0,19681.0,-9806.0,191701.0
51664.536376953125,260.0,19452.0,-9689.0,191818.0
51683.21923828125,261.0,19225.0,-9574.0,191933.0
51701.902099609375,262.0,18999.0,-9459.0,192048.0
51720.5849609375,263.0,18776.0,-9348.0,192159.0
51739.267822265625,264.0,18555.0,-9240.0,192267.0
51757.95068359375,265.0,18336.0,-9133.0,192374.0
51776.63330078125,266.0,18121.0,-9027.0,192480.0
51795.316162109375,267.0,17908.0,-8922.0,192585.0
51813.9990234375,268.0,17698.0,-8817.0,192690.0
51832.681884765625,269.0,17492.0,-8714.0,192793.0
51851.36474609375,270.0,17286.0,-8613.0,192894.0
51870.047607421875,271.0,17082.0,-8513.0,192994.0
51888.73046875,272.0,16882.0,-8414.0,193093.0
51907.413330078125,273.0,16683.0,-8315.0,193192.0
51926.095947265625,274.0,16485.0,-8222.0,193285.0
51944.77880859375,275.0,16285.0,-8134.0,193373.0
51963.461669921875,276.0,16085.0,-8049.0,193458.0
51982.14453125,277.0,15889.0,-7965.0,193542.0
52000.827392578125,278.0,15698.0,-7879.0,193628.0
52019.51025390625,279.0,15513.0,-7789.0,193718.0
52038.193115234375,280.0,15331.0,-7698.0,193809.0
52056.8759765625,281.0,15155.0,-7605.0,193902.0
52075.558837890625,282.0,14981.0,-7512.0,193995.0
52094.241455078125,283.0,14809.0,-7419.0,194088.0
52112.92431640625,284.0,14638.0,-7328.0,194179.0
52131.607177734375,285.0,14468.0,-7238.0,194269.0
52150.2900390625,286.0,14299.0,-7151.0,194356.0
52168.972900390625,287.0,14130.0,-7065.0,194442.0
52187.65576171875,288.0,13964.0,-6982.0,194525.0
52206.338623046875,289.0,13800.0,-6900.0,194607.0
52225.021484375,290.0,13639.0,-6818.0,194689.0
52243.7041015625,291.0,13482.0,-6737.0,194770.0
52262.386962890625,292.0,13325.0,-6659.0,194848.0
52281.06982421875,293.0,13169.0,-6581.0,194926.0
52299.752685546875,294.0,13016.0,-6504.0,195003.0
52318.435546875,295.0,12865.0,-6427.0,195080.0
52337.118408203125,296.0,12715.0,-6350.0,195157.0
52355.80126953125,297.0,12567.0,-6274.0,195233.0
52374.484130859375,298.0,12421.0,-6198.0,195309.0
52393.1669921875,299.0,12278.0,-6123.0,195384.0
52411.849609375,300.0,12136.0,-6049.0,195458.0
52430.532470703125,301.0,11996.0,-5977.0,195530.0
52449.21533203125,302.0,11855.0,-5907.0,195600.0
52467.898193359375,303.0,11714.0,-5839.0,195668.0
52486.5810546875,304.0,11576.0,-5772.0,195735.0
52505.263916015625,305.0,11440.0,-5707.0,195800.0
52523.94677734375,306.0,11305.0,-5642.0,195865.0
52542.629638671875,307.0,11171.0,-5577.0,195930.0
52561.312255859375,308.0,11040.0,-5511.0,195996.0
52579.9951171875,309.0,10911.0,-5447.0,196060.0
52598.677978515625,310.0,10785.0,-5382.0,196125.0
52617.36083984375,311.0,10659.0,-5320.0,196187.0
52636.043701171875,312.0,10532.0,-5261.0,196246.0
52654.7265625,313.0,10401.0,-5208.0,196299.0
52673.409423828125,314.0,10270.0,-5156.0,196351.0
52692.09228515625,315.0,10142.0,-5104.0,196403.0
52710.775146484375,316.0,10016.0,-5049.0,196458.0
52729.457763671875,317.0,9895.0,-4992.0,196515.0
52748.140625,318.0,9779.0,-4932.0,196575.0
52766.823486328125,319.0,9666.0,-4871.0,196636.0
52785.50634765625,320.0,9556.0,-4810.0,196697.0
52804.189208984375,321.0,9447.0,-4749.0,196758.0
52822.8720703125,322.0,9339.0,-4689.0,196818.0
52841.554931640625,323.0,9233.0,-4631.0,196876.0
52860.23779296875,324.0,9128.0,-4574.0,196933.0
52878.92041015625,325.0,9024.0,-4519.0,196988.0
52897.603271484375,326.0,8921.0,-4466.0,197041.0
52916.2861328125,327.0,8819.0,-4413.0,197094.0
52934.968994140625,328.0,8719.0,-4360.0,197147.0
52953.65185546875,329.0,8620.0,-4307.0,197200.0
52972.334716796875,330.0,8522.0,-4254.0,197253.0
52991.017578125,331.0,8424.0,-4203.0,197304.0
53009.700439453125,332.0,8327.0,-4151.0,197356.0
53028.383056640625,333.0,8232.0,-4102.0,197405.0
53047.06591796875,334.0,8136.0,-4054.0,197453.0
53065.748779296875,335.0,8042.0,-4006.0,197501.0
53084.431640625,336.0,7949.0,-3958.0,197549.0
53103.114501953125,337.0,7857.0,-3911.0,197596.0
53121.79736328125,338.0,7764.0,-3864.0,197643.0
53140.480224609375,339.0,7673.0,-3819.0,197688.0
53159.1630859375,340.0,7584.0,-3774.0,197733.0
53177.845947265625,341.0,7495.0,-3729.0,197778.0
53196.528564453125,342.0,7408.0,-3685.0,197822.0
53215.21142578125,343.0,7322.0,-3641.0,197866.0
53233.894287109375,344.0,7238.0,-3597.0,197910.0
53252.5771484375,345.0,7153.0,-3554.0,197953.0
53271.260009765625,346.0,7068.0,-3514.0,197993.0
53289.94287109375,347.0,6980.0,-3479.0,198028.0
53308.625732421875,348.0,6889.0,-3447.0,198060.0
53327.30859375,349.0,6800.0,-3416.0,198091.0
53345.9912109375,350.0,6713.0,-3383.0,198124.0
53364.674072265625,351.0,6629.0,-3348.0,198159.0
53383.35693359375,352.0,6547.0,-3309.0,198198.0
53402.039794921875,353.0,6471.0,-3268.0,198239.0
53420.72265625,354.0,6397.0,-3227.0,198280.0
53439.405517578125,355.0,6324.0,-3186.0,198321.0
53458.08837890625,356.0,6253.0,-3146.0,198361.0
53476.771240234375,357.0,6183.0,-3106.0,198401.0
53495.4541015625,358.0,6114.0,-3066.0,198441.0
53514.13671875,359.0,6043.0,-3028.0,198479.0
53532.819580078125,360.0,5972.0,-2990.0,198517.0
53551.50244140625,361.0,5904.0,-2953.0,198554.0
53570.185302734375,362.0,5838.0,-2915.0,198592.0
53588.8681640625,363.0,5775.0,-2879.0,198628.0
53607.551025390625,364.0,5711.0,-2844.0,198663.0
53626.23388671875,365.0,5647.0,-2809.0,198698.0
53644.916748046875,366.0,5581.0,-2776.0,198731.0
53663.599365234375,367.0,5515.0,-2743.0,198764.0
53682.2822265625,368.0,5449.0,-2711.0,198796.0
53700.965087890625,369.0,5386.0,-2677.0,198830.0
53719.64794921875,370.0,5326.0,-2643.0,198864.0
53738.330810546875,371.0,5268.0,-2610.0,198897.0
53757.013671875,372.0,5210.0,-2578.0,198929.0
53775.696533203125,373.0,5149.0,-2548.0,198959.0
53794.37939453125,374.0,5084.0,-2519.0,198988.0
53813.062255859375,375.0,5017.0,-2492.0,199015.0
53831.744873046875,376.0,4951.0,-2466.0,199041.0
53850.427734375,377.0,4887.0,-2440.0,199067.0
53869.110595703125,378.0,4825.0,-2412.0,199095.0
53887.79345703125,379.0,4767.0,-2384.0,199123.0
53906.476318359375,380.0,4714.0,-2355.0,199152.0
53925.1591796875,381.0,4662.0,-2327.0,199180.0
53943.842041015625,382.0,4609.0,-2300.0,199207.0
53962.52490234375,383.0,4553.0,-2279.0,199228.0
53981.20751953125,384.0,4494.0,-2261.0,199246.0
53999.890380859375,385.0,4436.0,-2242.0,199265.0
54018.5732421875,386.0,4379.0,-2222.0,199285.0
54037.256103515625,387.0,4324.0,-2198.0,199309.0
54055.93896484375,388.0,4274.0,-2171.0,199336.0
54074.621826171875,389.0,4226.0,-2143.0,199364.0
54093.3046875,390.0,4178.0,-2115.0,199392.0
54111.987548828125,391.0,4131.0,-2087.0,199420.0
54130.670166015625,392.0,4085.0,-2058.0,199449.0
54149.35302734375,393.0,4040.0,-2031.0,199476.0
54168.035888671875,394.0,3997.0,-2005.0,199502.0
54186.71875,395.0,3954.0,-1981.0,199526.0
54205.401611328125,396.0,3912.0,-1957.0,199550.0
54224.08447265625,397.0,3871.0,-1933.0,199574.0
54242.767333984375,398.0,3828.0,-1908.0,199599.0
54261.4501953125,399.0,3785.0,-1884.0,199623.0
54280.133056640625,400.0,3743.0,-1859.0,199648.0
54298.815673828125,401.0,3699.0,-1835.0,199672.0
54317.49853515625,402.0,3653.0,-1812.0,199695.0
54336.181396484375,403.0,3606.0,-1791.0,199716.0
54354.8642578125,404.0,3561.0,-1770.0,199737.0
54373.547119140625,405.0,3518.0,-1748.0,199759.0
54392.22998046875,406.0,3477.0,-1726.0,199781.0
54410.912841796875,407.0,3436.0,-1705.0,199802.0
54429.595703125,408.0,3397.0,-1684.0,199823.0
54448.2783203125,409.0,3358.0,-1665.0,199842.0
54466.961181640625,410.0,3318.0,-1646.0,199861.0
54485.64404296875,411.0,3279.0,-1628.0,199879.0
54504.326904296875,412.0,3239.0,-1611.0,199896.0
54523.009765625,413.0,3200.0,-1594.0,199913.0
54541.692626953125,414.0,3164.0,-1576.0,199931.0
54560.37548828125,415.0,3127.0,-1559.0,199948.0
54579.058349609375,416.0,3090.0,-1540.0,199967.0
54597.7412109375,417.0,3054.0,-1521.0,199986.0
54616.423828125,418.0,3018.0,-1502.0,200005.0
54635.106689453125,419.0,2981.0,-1487.0,200020.0
54653.78955078125,420.0,2939.0,-1477.0,200030.0
54672.472412109375,421.0,2894.0,-1469.0,200038.0
54691.1552734375,422.0,2849.0,-1460.0,200047.0
54709.838134765625,423.0,2806.0,-1449.0,200058.0
54728.52099609375,424.0,2769.0,-1435.0,200072.0
54747.203857421875,425.0,2736.0,-1417.0,200090.0
54765.886474609375,426.0,2705.0,-1397.0,200110.0
54784.5693359375,427.0,2677.0,-1376.0,200131.0
54803.252197265625,428.0,2650.0,-1355.0,200152.0
54821.93505859375,429.0,2624.0,-1335.0,200172.0
54840.617919921875,430.0,2597.0,-1317.0,200190.0
54859.30078125,431.0,2569.0,-1299.0,200208.0
54877.983642578125,432.0,2541.0,-1283.0,200224.0
54896.66650390625,433.0,2514.0,-1267.0,200240.0
54915.34912109375,434.0,2486.0,-1251.0,200256.0
54934.031982421875,435.0,2460.0,-1235.0,200272.0
54952.71484375,436.0,2434.0,-1219.0,200288.0
54971.397705078125,437.0,2409.0,-1203.0,200304.0
54990.08056640625,438.0,2383.0,-1187.0,200320.0
55008.763427734375,439.0,2356.0,-1172.0,200335.0
55027.4462890625,440.0,2328.0,-1158.0,200349.0
55046.129150390625,441.0,2301.0,-1143.0,200364.0
55064.81201171875,442.0,2274.0,-1128.0,200379.0
55083.49462890625,443.0,2248.0,-1114.0,200393.0
55102.177490234375,444.0,2223.0,-1099.0,200408.0
55120.8603515625,445.0,2198.0,-1086.0,200421.0
55139.543212890625,446.0,2173.0,-1074.0,200433.0
55158.22607421875,447.0,2147.0,-1064.0,200443.0
55176.908935546875,448.0,2121.0,-1054.0,200453.0
55195.591796875,449.0,2096.0,-1044.0,200463.0
55214.274658203125,450.0,2071.0,-1032.0,200475.0
55232.957275390625,451.0,2048.0,-1020.0,200487.0
55251.64013671875,452.0,2025.0,-1007.0,200500.0
55270.322998046875,453.0,2005.0,-992.0,200515.0
55289.005859375,454.0,1989.0,-978.0,200529.0
55307.688720703125,455.0,1972.0,-965.0,200542.0
55326.37158203125,456.0,1952.0,-954.0,200553.0
55345.054443359375,457.0,1926.0,-947.0,200560.0
55363.7373046875,458.0,1896.0,-944.0,200563.0
55382.420166015625,459.0,1864.0,-942.0,200565.0
55401.102783203125,460.0,1834.0,-940.0,200567.0
55419.78564453125,461.0,1807.0,-935.0,200572.0
55438.468505859375,462.0,1785.0,-926.0,200581.0
55457.1513671875,463.0,1765.0,-914.0,200593.0
55475.834228515625,464.0,1747.0,-900.0,200607.0
55494.51708984375,465.0,1730.0,-886.0,200621.0
55513.199951171875,466.0,1712.0,-872.0,200635.0
55531.8828125,467.0,1694.0,-860.0,200647.0
55550.5654296875,468.0,1676.0,-849.0,200658.0
55569.248291015625,469.0,1658.0,-838.0,200669.0
55587.93115234375,470.0,1639.0,-827.0,200680.0
55606.614013671875,471.0,1619.0,-816.0,200691.0
55625.296875,472.0,1597.0,-807.0,200700.0
55643.979736328125,473.0,1574.0,-797.0,200710.0
55662.66259765625,474.0,1552.0,-787.0,200720.0
55681.345458984375,475.0,1532.0,-777.0,200730.0
55700.0283203125,476.0,1513.0,-766.0,200741.0
55718.7109375,477.0,1497.0,-756.0,200751.0
55737.393798828125,478.0,1481.0,-746.0,200761.0
55756.07666015625,479.0,1468.0,-735.0,200772.0
55774.759521484375,480.0,1456.0,-724.0,200783.0
55793.4423828125,481.0,1444.0,-712.0,200795.0
55812.125244140625,482.0,1433.0,-701.0,200806.0
55830.80810546875,483.0,1422.0,-689.0,200818.0
55849.490966796875,484.0,1408.0,-680.0,200827.0
55868.173583984375,485.0,1394.0,-671.0,200836.0
55886.8564453125,486.0,1377.0,-663.0,200844.0
55905.539306640625,487.0,1360.0,-657.0,200850.0
55924.22216796875,488.0,1341.0,-651.0,200856.0
55942.905029296875,489.0,1321.0,-645.0,200862.0
55961.587890625,490.0,1302.0,-640.0,200867.0
55980.270751953125,491.0,1282.0,-636.0,200871.0
55998.95361328125,492.0,1258.0,-636.0,200871.0
56017.63623046875,493.0,1232.0,-637.0,200870.0
56036.319091796875,494.0,1208.0,-640.0,200867.0
56055.001953125,495.0,1186.0,-639.0,200868.0
56073.684814453125,496.0,1169.0,-636.0,200871.0
56092.36767578125,497.0,1156.0,-629.0,200878.0
56111.050537109375,498.0,1144.0,-619.0,200888.0
56129.7333984375,499.0,1136.0,-608.0,200899.0
56148.416259765625,500.0,1130.0,-596.0,200911.0
56167.09912109375,501.0,1123.0,-583.0,200924.0
56185.78173828125,502.0,1116.0,-572.0,200935.0
56204.464599609375,503.0,1107.0,-562.0,200945.0
56223.1474609375,504.0,1095.0,-556.0,200951.0
56241.830322265625,505.0,1082.0,-549.0,200958.0
56260.51318359375,506.0,1070.0,-543.0,200964.0
56279.196044921875,507.0,1056.0,-535.0,200972.0
56297.87890625,508.0,1043.0,-528.0,200979.0
56316.561767578125,509.0,1031.0,-519.0,200988.0
56335.244384765625,510.0,1021.0,-510.0,200997.0
56353.92724609375,511.0,1011.0,-501.0,201006.0
56372.610107421875,512.0,1002.0,-493.0,201014.0
56391.29296875,513.0,992.0,-484.0,201023.0
56409.975830078125,514.0,980.0,-476.0,201031.0
56428.65869140625,515.0,970.0,-469.0,201038.0
56447.341552734375,516.0,958.0,-461.0,201046.0
56466.0244140625,517.0,948.0,-454.0,201053.0
56484.707275390625,518.0,939.0,-447.0,201060.0
56503.389892578125,519.0,930.0,-440.0,201067.0
56522.07275390625,520.0,923.0,-433.0,201074.0
56540.755615234375,521.0,915.0,-428.0,201079.0
56559.4384765625,522.0,907.0,-424.0,201083.0
56578.121337890625,523.0,894.0,-421.0,201086.0
56596.80419921875,524.0,878.0,-420.0,201087.0
56615.487060546875,525.0,860.0,-423.0,201084.0
56634.169921875,526.0,841.0,-429.0,201078.0
56652.8525390625,527.0,823.0,-434.0,201073.0
56671.535400390625,528.0,811.0,-435.0,201072.0
56690.21826171875,529.0,801.0,-433.0,201074.0
56708.901123046875,530.0,796.0,-426.0,201081.0
56727.583984375,531.0,792.0,-417.0,201090.0
56746.266845703125,532.0,790.0,-407.0,201100.0
56764.94970703125,533.0,786.0,-397.0,201110.0
56783.632568359375,534.0,781.0,-389.0,201118.0
56802.3154296875,535.0,776.0,-380.0,201127.0
56820.998046875,536.0,770.0,-374.0,201133.0
56839.680908203125,537.0,763.0,-368.0,201139.0
56858.36376953125,538.0,755.0,-364.0,201143.0
56877.046630859375,539.0,746.0,-361.0,201146.0
56895.7294921875,540.0,738.0,-355.0,201152.0
56914.412353515625,541.0,731.0,-350.0,201157.0
56933.09521484375,542.0,725.0,-343.0,201164.0
56951.778076171875,543.0,718.0,-337.0,201170.0
56970.460693359375,544.0,712.0,-332.0,201175.0
56989.1435546875,545.0,707.0,-327.0,201180.0
57007.826416015625,546.0,698.0,-323.0,201184.0
57026.50927734375,547.0,687.0,-320.0,201187.0
57045.192138671875,548.0,674.0,-316.0,201191.0
57063.875,549.0,663.0,-311.0,201196.0
57082.557861328125,550.0,654.0,-305.0,201202.0
57101.24072265625,551.0,648.0,-300.0,201207.0
57119.92333984375,552.0,644.0,-295.0,201212.0
57138.606201171875,553.0,641.0,-291.0,201216.0
57157.2890625,554.0,638.0,-287.0,201220.0
57175.971923828125,555.0,633.0,-285.0,201222.0
57194.65478515625,556.0,626.0,-282.0,201225.0
57213.337646484375,557.0,617.0,-281.0,201226.0
57232.0205078125,558.0,603.0,-286.0,201221.0
57250.703369140625,559.0,585.0,-293.0,201214.0
57269.38623046875,560.0,566.0,-300.0,201207.0
57288.06884765625,561.0,548.0,-306.0,201201.0
57306.751708984375,562.0,535.0,-309.0,201198.0
57325.4345703125,563.0,524.0,-308.0,201199.0
57344.117431640625,564.0,518.0,-304.0,201203.0
57362.80029296875,565.0,515.0,-297.0,201210.0
57381.483154296875,566.0,513.0,-289.0,201218.0
57400.166015625,567.0,512.0,-281.0,201226.0
57418.848876953125,568.0,509.0,-273.0,201234.0
57437.531494140625,569.0,506.0,-266.0,201241.0
57456.21435546875,570.0,504.0,-261.0,201246.0
57474.897216796875,571.0,503.0,-256.0,201251.0
57493.580078125,572.0,501.0,-252.0,201255.0
57512.262939453125,573.0,496.0,-248.0,201259.0
57530.94580078125,574.0,489.0,-243.0,201264.0
57549.628662109375,575.0,482.0,-239.0,201268.0
57568.3115234375,576.0,476.0,-235.0,201272.0
57586.994384765625,577.0,472.0,-232.0,201275.0
57605.677001953125,578.0,467.0,-230.0,201277.0
57624.35986328125,579.0,463.0,-228.0,201279.0
57643.042724609375,580.0,459.0,-225.0,201282.0
57661.7255859375,581.0,455.0,-223.0,201284.0
57680.408447265625,582.0,453.0,-218.0,201289.0
57699.09130859375,583.0,451.0,-214.0,201293.0
57717.774169921875,584.0,449.0,-208.0,201299.0
57736.45703125,585.0,448.0,-203.0,201304.0
57755.1396484375,586.0,446.0,-199.0,201308.0
57773.822509765625,587.0,443.0,-195.0,201312.0
57792.50537109375,588.0,438.0,-192.0,201315.0
57811.188232421875,589.0,432.0,-188.0,201319.0
57829.87109375,590.0,427.0,-185.0,201322.0
57848.553955078125,591.0,423.0,-183.0,201324.0
57867.23681640625,592.0,416.0,-182.0,201325.0
57885.919677734375,593.0,406.0,-185.0,201322.0
57904.6025390625,594.0,392.0,-192.0,201315.0
57923.28515625,595.0,375.0,-201.0,201306.0
57941.968017578125,596.0,362.0,-210.0,201297.0
57960.65087890625,597.0,351.0,-215.0,201292.0
57979.333740234375,598.0,345.0,-215.0,201292.0
57998.0166015625,599.0,343.0,-210.0,201297.0
58016.699462890625,600.0,342.0,-205.0,201302.0
58035.38232421875,601.0,341.0,-198.0,201309.0
58054.065185546875,602.0,340.0,-191.0,201316.0
58072.747802734375,603.0,338.0,-185.0,201322.0
58091.4306640625,604.0,336.0,-179.0,201328.0
58110.113525390625,605.0,334.0,-175.0,201332.0
58128.79638671875,606.0,329.0,-173.0,201334.0
58147.479248046875,607.0,325.0,-171.0,201336.0
58166.162109375,608.0,320.0,-168.0,201339.0
58184.844970703125,609.0,317.0,-166.0,201341.0
58203.52783203125,610.0,316.0,-163.0,201344.0
58222.21044921875,611.0,317.0,-160.0,201347.0
58240.893310546875,612.0,317.0,-157.0,201350.0
58259.576171875,613.0,314.0,-156.0,201351.0
58278.259033203125,614.0,311.0,-154.0,201353.0
58296.94189453125,615.0,307.0,-152.0,201355.0
58315.624755859375,616.0,302.0,-151.0,201356.0
58334.3076171875,617.0,299.0,-148.0,201359.0
58352.990478515625,618.0,295.0,-144.0,201363.0
58371.67333984375,619.0,291.0,-140.0,201367.0
58390.35595703125,620.0,287.0,-136.0,201371.0
58409.038818359375,621.0,284.0,-132.0,201375.0
58427.7216796875,622.0,283.0,-130.0,201377.0
58446.404541015625,623.0,283.0,-127.0,201380.0
58465.08740234375,624.0,284.0,-125.0,201382.0
58483.770263671875,625.0,285.0,-122.0,201385.0
58502.453125,626.0,281.0,-120.0,201387.0
58521.135986328125,627.0,275.0,-120.0,201387.0
58539.818603515625,628.0,264.0,-126.0,201381.0
58558.50146484375,629.0,251.0,-133.0,201374.0
58577.184326171875,630.0,238.0,-143.0,201364.0
58595.8671875,631.0,226.0,-150.0,201357.0
58614.550048828125,632.0,216.0,-155.0,201352.0
58633.23291015625,633.0,211.0,-158.0,201349.0
58651.915771484375,634.0,209.0,-156.0,201351.0
58670.5986328125,635.0,213.0,-150.0,201357.0
58689.281494140625,636.0,221.0,-141.0,201366.0
58707.964111328125,637.0,228.0,-132.0,201375.0
58726.64697265625,638.0,233.0,-126.0,201381.0
58745.329833984375,639.0,237.0,-120.0,201387.0
58764.0126953125,640.0,237.0,-117.0,201390.0
58782.695556640625,641.0,234.0,-115.0,201392.0
58801.37841796875,642.0,230.0,-112.0,201395.0
58820.061279296875,643.0,226.0,-110.0,201397.0
58838.744140625,644.0,224.0,-106.0,201401.0
58857.4267578125,645.0,223.0,-102.0,201405.0
58876.109619140625,646.0,225.0,-99.0,201408.0
58894.79248046875,647.0,226.0,-97.0,201410.0
58913.475341796875,648.0,225.0,-96.0,201411.0
58932.158203125,649.0,223.0,-96.0,201411.0
58950.841064453125,650.0,221.0,-97.0,201410.0
58969.52392578125,651.0,219.0,-98.0,201409.0
58988.206787109375,652.0,215.0,-97.0,201410.0
59006.8896484375,653.0,213.0,-95.0,201412.0
59025.572265625,654.0,211.0,-92.0,201415.0
59044.255126953125,655.0,211.0,-89.0,201418.0
59062.93798828125,656.0,211.0,-86.0,201421.0
59081.620849609375,657.0,212.0,-83.0,201424.0
59100.3037109375,658.0,211.0,-80.0,201427.0
59118.986572265625,659.0,210.0,-76.0,201431.0
59137.66943359375,660.0,207.0,-74.0,201433.0
59156.352294921875,661.0,203.0,-75.0,201432.0
59175.034912109375,662.0,195.0,-80.0,201427.0
59193.7177734375,663.0,185.0,-89.0,201418.0
59212.400634765625,664.0,175.0,-97.0,201410.0
59231.08349609375,665.0,166.0,-103.0,201404.0
59249.766357421875,666.0,160.0,-107.0,201400.0
59268.44921875,667.0,158.0,-108.0,201399.0
59287.132080078125,668.0,159.0,-105.0,201402.0
59305.81494140625,669.0,162.0,-100.0,201407.0
59324.49755859375,670.0,165.0,-94.0,201413.0
59343.180419921875,671.0,167.0,-87.0,201420.0
59361.86328125,672.0,168.0,-82.0,201425.0
59380.546142578125,673.0,169.0,-78.0,201429.0
59399.22900390625,674.0,169.0,-75.0,201432.0
59417.911865234375,675.0,168.0,-72.0,201435.0
59436.5947265625,676.0,166.0,-69.0,201438.0
59455.277587890625,677.0,164.0,-67.0,201440.0
59473.96044921875,678.0,162.0,-64.0,201443.0
59492.64306640625,679.0,160.0,-62.0,201445.0
59511.325927734375,680.0,159.0,-60.0,201447.0
59530.0087890625,681.0,158.0,-60.0,201447.0
59548.691650390625,682.0,156.0,-59.0,201448.0
59567.37451171875,683.0,154.0,-58.0,201449.0
59586.057373046875,684.0,151.0,-57.0,201450.0
59604.740234375,685.0,149.0,-56.0,201451.0
59623.423095703125,686.0,148.0,-55.0,201452.0
59642.105712890625,687.0,149.0,-52.0,201455.0
59660.78857421875,688.0,149.0,-50.0,201457.0
59679.471435546875,689.0,149.0,-46.0,201461.0
59698.154296875,690.0,148.0,-43.0,201464.0
59716.837158203125,691.0,148.0,-39.0,201468.0
59735.52001953125,692.0,146.0,-38.0,201469.0
59754.202880859375,693.0,142.0,-38.0,201469.0
59772.8857421875,694.0,137.0,-41.0,201466.0
59791.568603515625,695.0,128.0,-48.0,201459.0
59810.251220703125,696.0,118.0,-59.0,201448.0
59828.93408203125,697.0,109.0,-69.0,201438.0
59847.616943359375,698.0,99.0,-77.0,201430.0
59866.2998046875,699.0,92.0,-80.0,201427.0
59884.982666015625,700.0,88.0,-80.0,201427.0
59903.66552734375,701.0,88.0,-77.0,201430.0
59922.348388671875,702.0,91.0,-73.0,201434.0
59941.03125,703.0,97.0,-68.0,201439.0
59959.7138671875,704.0,102.0,-63.0,201444.0
59978.396728515625,705.0,106.0,-57.0,201450.0
59997.07958984375,706.0,108.0,-53.0,201454.0
60015.762451171875,707.0,107.0,-50.0,201457.0
60034.4453125,708.0,106.0,-48.0,201459.0
60053.128173828125,709.0,108.0,-45.0,201462.0
60071.81103515625,710.0,111.0,-41.0,201466.0
60090.493896484375,711.0,116.0,-38.0,201469.0
60109.1767578125,712.0,119.0,-34.0,201473.0
60127.859375,713.0,121.0,-33.0,201474.0
60146.542236328125,714.0,120.0,-32.0,201475.0
60165.22509765625,715.0,117.0,-33.0,201474.0
60183.907958984375,716.0,114.0,-34.0,201473.0
60202.5908203125,717.0,110.0,-34.0,201473.0
60221.273681640625,718.0,109.0,-35.0,201472.0
60239.95654296875,719.0,109.0,-33.0,201474.0
60258.639404296875,720.0,108.0,-31.0,201476.0
60277.322021484375,721.0,107.0,-29.0,201478.0
60296.0048828125,722.0,107.0,-26.0,201481.0
60314.687744140625,723.0,107.0,-23.0,201484.0
60333.37060546875,724.0,107.0,-21.0,201486.0
60352.053466796875,725.0,105.0,-19.0,201488.0
60370.736328125,726.0,104.0,-18.0,201489.0
60389.419189453125,727.0,103.0,-18.0,201489.0
60408.10205078125,728.0,102.0,-20.0,201487.0
60426.78466796875,729.0,98.0,-25.0,201482.0
60445.467529296875,730.0,89.0,-34.0,201473.0
60464.150390625,731.0,80.0,-45.0,201462.0
60482.833251953125,732.0,71.0,-55.0,201452.0
60501.51611328125,733.0,65.0,-62.0,201445.0
60520.198974609375,734.0,63.0,-65.0,201442.0
60538.8818359375,735.0,63.0,-64.0,201443.0
60557.564697265625,736.0,66.0,-60.0,201447.0
60576.24755859375,737.0,69.0,-54.0,201453.0
60594.93017578125,738.0,70.0,-47.0,201460.0
60613.613037109375,739.0,72.0,-41.0,201466.0
60632.2958984375,740.0,77.0,-35.0,201472.0
60650.978759765625,741.0,82.0,-31.0,201476.0
60669.66162109375,742.0,86.0,-27.0,201480.0
60688.344482421875,743.0,89.0,-25.0,201482.0
60707.02734375,744.0,91.0,-24.0,201483.0
60725.710205078125,745.0,92.0,-23.0,201484.0
60744.392822265625,746.0,92.0,-22.0,201485.0
60763.07568359375,747.0,90.0,-22.0,201485.0
60781.758544921875,748.0,89.0,-22.0,201485.0
60800.44140625,749.0,86.0,-21.0,201486.0
60819.124267578125,750.0,84.0,-22.0,201485.0
60837.80712890625,751.0,83.0,-22.0,201485.0
60856.489990234375,752.0,83.0,-20.0,201487.0
60875.1728515625,753.0,82.0,-18.0,201489.0
60893.855712890625,754.0,81.0,-17.0,201490.0
60912.538330078125,755.0,79.0,-16.0,201491.0
60931.22119140625,756.0,78.0,-15.0,201492.0
60949.904052734375,757.0,75.0,-13.0,201494.0
60968.5869140625,758.0,72.0,-11.0,201496.0
60987.269775390625,759.0,71.0,-10.0,201497.0
61005.95263671875,760.0,72.0,-8.0,201499.0
61024.635498046875,761.0,74.0,-7.0,201500.0
61043.318359375,762.0,75.0,-6.0,201501.0
61062.0009765625,763.0,75.0,-5.0,201502.0
61080.683837890625,764.0,75.0,-4.0,201503.0
61099.36669921875,765.0,74.0,-4.0,201503.0
61118.049560546875,766.0,73.0,-7.0,201500.0
61136.732421875,767.0,67.0,-13.0,201494.0
61155.415283203125,768.0,59.0,-22.0,201485.0
61174.09814453125,769.0,48.0,-33.0,201474.0
61192.781005859375,770.0,37.0,-45.0,201462.0
61211.4638671875,771.0,27.0,-52.0,201455.0
61230.146484375,772.0,23.0,-57.0,201450.0
61248.829345703125,773.0,23.0,-56.0,201451.0
61267.51220703125,774.0,25.0,-53.0,201454.0
61286.195068359375,775.0,29.0,-49.0,201458.0
61304.8779296875,776.0,33.0,-43.0,201464.0
61323.560791015625,777.0,36.0,-37.0,201470.0
61342.24365234375,778.0,39.0,-31.0,201476.0
61360.926513671875,779.0,39.0,-28.0,201479.0
61379.609130859375,780.0,36.0,-27.0,201480.0
61398.2919921875,781.0,33.0,-28.0,201479.0
61416.974853515625,782.0,28.0,-30.0,201477.0
61435.65771484375,783.0,26.0,-30.0,201477.0
61454.340576171875,784.0,25.0,-31.0,201476.0
61473.0234375,785.0,25.0,-30.0,201477.0
61491.706298828125,786.0,27.0,-29.0,201478.0
61510.38916015625,787.0,29.0,-27.0,201480.0
61529.07177734375,788.0,31.0,-27.0,201480.0
61547.754638671875,789.0,33.0,-25.0,201482.0
61566.4375,790.0,36.0,-22.0,201485.0
61585.120361328125,791.0,37.0,-19.0,201488.0
61603.80322265625,792.0,39.0,-16.0,201491.0
61622.486083984375,793.0,39.0,-12.0,201495.0
61641.1689453125,794.0,40.0,-9.0,201498.0
61659.851806640625,795.0,42.0,-7.0,201500.0
61678.53466796875,796.0,45.0,-6.0,201501.0
61697.21728515625,797.0,46.0,-6.0,201501.0
61715.900146484375,798.0,48.0,-5.0,201502.0
61734.5830078125,799.0,48.0,-3.0,201504.0
61753.265869140625,800.0,51.0,0.0,201507.0
61771.94873046875,801.0,55.0,1.0,201508.0
61790.631591796875,802.0,59.0,1.0,201508.0
61809.314453125,803.0,56.0,-5.0,201502.0
61827.997314453125,804.0,49.0,-14.0,201493.0
61846.679931640625,805.0,41.0,-24.0,201483.0
61865.36279296875,806.0,32.0,-33.0,201474.0
61884.045654296875,807.0,27.0,-39.0,201468.0
61902.728515625,808.0,25.0,-41.0,201466.0
61921.411376953125,809.0,26.0,-40.0,201467.0
61940.09423828125,810.0,30.0,-35.0,201472.0
61958.777099609375,811.0,35.0,-30.0,201477.0
61977.4599609375,812.0,40.0,-25.0,201482.0
61996.142822265625,813.0,44.0,-20.0,201487.0
62014.825439453125,814.0,45.0,-16.0,201491.0
62033.50830078125,815.0,46.0,-13.0,201494.0
62052.191162109375,816.0,44.0,-11.0,201496.0
62070.8740234375,817.0,44.0,-10.0,201497.0
62089.556884765625,818.0,44.0,-10.0,201497.0
62108.23974609375,819.0,47.0,-8.0,201499.0
62126.922607421875,820.0,49.0,-7.0,201500.0
62145.60546875,821.0,49.0,-6.0,201501.0
62164.2880859375,822.0,48.0,-5.0,201502.0
62182.970947265625,823.0,46.0,-5.0,201502.0
62201.65380859375,824.0,46.0,-5.0,201502.0
62220.336669921875,825.0,48.0,-4.0,201503.0
62239.01953125,826.0,53.0,-2.0,201505.0
62257.702392578125,827.0,57.0,1.0,201508.0
62276.38525390625,828.0,61.0,5.0,201512.0
62295.068115234375,829.0,66.0,8.0,201515.0
62313.7509765625,830.0,69.0,11.0,201518.0
62332.43359375,831.0,71.0,14.0,201521.0
62351.116455078125,832.0,71.0,17.0,201524.0
62369.79931640625,833.0,71.0,19.0,201526.0
62388.482177734375,834.0,69.0,18.0,201525.0
62407.1650390625,835.0,66.0,18.0,201525.0
62425.847900390625,836.0,61.0,13.0,201520.0
62444.53076171875,837.0,52.0,5.0,201512.0
62463.213623046875,838.0,42.0,-7.0,201500.0
62481.896240234375,839.0,30.0,-18.0,201489.0
62500.5791015625,840.0,21.0,-27.0,201480.0
62519.261962890625,841.0,15.0,-32.0,201475.0
62537.94482421875,842.0,12.0,-34.0,201473.0
62556.627685546875,843.0,10.0,-34.0,201473.0
62575.310546875,844.0,13.0,-31.0,201476.0
62593.993408203125,845.0,17.0,-27.0,201480.0
62612.67626953125,846.0,22.0,-23.0,201484.0
62631.35888671875,847.0,26.0,-19.0,201488.0
62650.041748046875,848.0,27.0,-15.0,201492.0
62668.724609375,849.0,27.0,-12.0,201495.0
62687.407470703125,850.0,28.0,-10.0,201497.0
62706.09033203125,851.0,29.0,-9.0,201498.0
62724.773193359375,852.0,30.0,-8.0,201499.0
62743.4560546875,853.0,33.0,-6.0,201501.0
62762.138916015625,854.0,35.0,-4.0,201503.0
62780.82177734375,855.0,37.0,-2.0,201505.0
62799.50439453125,856.0,38.0,0.0,201507.0
62818.187255859375,857.0,38.0,0.0,201507.0
62836.8701171875,858.0,39.0,0.0,201507.0
62855.552978515625,859.0,40.0,1.0,201508.0
62874.23583984375,860.0,42.0,3.0,201510.0
62892.918701171875,861.0,43.0,4.0,201511.0
62911.6015625,862.0,43.0,5.0,201512.0
62930.284423828125,863.0,39.0,6.0,201513.0
62948.967041015625,864.0,36.0,7.0,201514.0
62967.64990234375,865.0,33.0,8.0,201515.0
62986.332763671875,866.0,33.0,8.0,201515.0
63005.015625,867.0,33.0,9.0,201516.0
63023.698486328125,868.0,33.0,8.0,201515.0
63042.38134765625,869.0,33.0,6.0,201513.0
63061.064208984375,870.0,32.0,3.0,201510.0
63079.7470703125,871.0,27.0,-3.0,201504.0
63098.429931640625,872.0,19.0,-13.0,201494.0
63117.112548828125,873.0,10.0,-24.0,201483.0
63135.79541015625,874.0,2.0,-34.0,201473.0
63154.478271484375,875.0,-3.0,-40.0,201467.0
63173.1611328125,876.0,-4.0,-43.0,201464.0
63191.843994140625,877.0,-2.0,-41.0,201466.0
63210.52685546875,878.0,2.0,-38.0,201469.0
63229.209716796875,879.0,6.0,-32.0,201475.0
63247.892578125,880.0,9.0,-27.0,201480.0
63266.5751953125,881.0,12.0,-23.0,201484.0
63285.258056640625,882.0,13.0,-18.0,201489.0
63303.94091796875,883.0,16.0,-15.0,201492.0
63322.623779296875,884.0,18.0,-13.0,201494.0
63341.306640625,885.0,19.0,-11.0,201496.0
63359.989501953125,886.0,22.0,-11.0,201496.0
63378.67236328125,887.0,23.0,-10.0,201497.0
63397.355224609375,888.0,27.0,-7.0,201500.0
63416.0380859375,889.0,31.0,-5.0,201502.0
63434.720703125,890.0,36.0,-2.0,201505.0
63453.403564453125,891.0,42.0,1.0,201508.0
63472.08642578125,892.0,46.0,5.0,201512.0
63490.769287109375,893.0,49.0,8.0,201515.0
63509.4521484375,894.0,50.0,10.0,201517.0
63528.135009765625,895.0,52.0,12.0,201519.0
63546.81787109375,896.0,53.0,13.0,201520.0
63565.500732421875,897.0,56.0,15.0,201522.0
63584.183349609375,898.0,58.0,17.0,201524.0
63602.8662109375,899.0,58.0,18.0,201525.0
63621.549072265625,900.0,59.0,18.0,201525.0
63640.23193359375,901.0,59.0,17.0,201524.0
63658.914794921875,902.0,58.0,17.0,201524.0
63677.59765625,903.0,58.0,17.0,201524.0
63696.280517578125,904.0,56.0,17.0,201524.0
63714.96337890625,905.0,54.0,17.0,201524.0
63733.64599609375,906.0,52.0,15.0,201522.0
63752.328857421875,907.0,49.0,12.0,201519.0
63771.01171875,908.0,42.0,4.0,201511.0
63789.694580078125,909.0,34.0,-7.0,201500.0
63808.37744140625,910.0,25.0,-17.0,201490.0
63827.060302734375,911.0,17.0,-25.0,201482.0
63845.7431640625,912.0,13.0,-29.0,201478.0
63864.426025390625,913.0,13.0,-31.0,201476.0
63883.10888671875,914.0,14.0,-28.0,201479.0
63901.79150390625,915.0,16.0,-23.0,201484.0
63920.474365234375,916.0,19.0,-17.0,201490.0
63939.1572265625,917.0,24.0,-12.0,201495.0
63957.840087890625,918.0,28.0,-7.0,201500.0
63976.52294921875,919.0,32.0,-4.0,201503.0
63995.205810546875,920.0,32.0,-4.0,201503.0
64013.888671875,921.0,31.0,-3.0,201504.0
64032.571533203125,922.0,31.0,-3.0,201504.0
64051.254150390625,923.0,29.0,-4.0,201503.0
64069.93701171875,924.0,29.0,-4.0,201503.0
64088.619873046875,925.0,29.0,-3.0,201504.0
64107.302734375,926.0,31.0,-1.0,201506.0
64125.985595703125,927.0,32.0,1.0,201508.0
64144.66845703125,928.0,31.0,2.0,201509.0
64163.351318359375,929.0,29.0,4.0,201511.0
64182.0341796875,930.0,27.0,5.0,201512.0
64200.717041015625,931.0,25.0,6.0,201513.0
64219.399658203125,932.0,27.0,7.0,201514.0
64238.08251953125,933.0,29.0,9.0,201516.0
64256.765380859375,934.0,30.0,8.0,201515.0
64275.4482421875,935.0,29.0,8.0,201515.0
64294.131103515625,936.0,27.0,8.0,201515.0
64312.81396484375,937.0,24.0,8.0,201515.0
64331.496826171875,938.0,21.0,8.0,201515.0
64350.1796875,939.0,18.0,7.0,201514.0
64368.8623046875,940.0,17.0,7.0,201514.0
64387.545166015625,941.0,18.0,7.0,201514.0
64406.22802734375,942.0,21.0,9.0,201516.0
64424.910888671875,943.0,27.0,10.0,201517.0
64443.59375,944.0,32.0,9.0,201516.0
64462.276611328125,945.0,35.0,4.0,201511.0
64480.95947265625,946.0,31.0,-3.0,201504.0
64499.642333984375,947.0,24.0,-13.0,201494.0
64518.3251953125,948.0,14.0,-21.0,201486.0
64537.0078125,949.0,6.0,-27.0,201480.0
64555.690673828125,950.0,2.0,-30.0,201477.0
64574.37353515625,951.0,0.0,-29.0,201478.0
64593.056396484375,952.0,1.0,-27.0,201480.0
64611.7392578125,953.0,2.0,-24.0,201483.0
64630.422119140625,954.0,5.0,-19.0,201488.0
64649.10498046875,955.0,9.0,-16.0,201491.0
64667.787841796875,956.0,13.0,-13.0,201494.0
64686.470458984375,957.0,16.0,-12.0,201495.0
64705.1533203125,958.0,19.0,-11.0,201496.0
64723.836181640625,959.0,20.0,-9.0,201498.0
64742.51904296875,960.0,20.0,-7.0,201500.0
64761.201904296875,961.0,19.0,-4.0,201503.0
64779.884765625,962.0,19.0,-1.0,201506.0
64798.567626953125,963.0,21.0,2.0,201509.0
64817.25048828125,964.0,23.0,4.0,201511.0
64835.93310546875,965.0,26.0,5.0,201512.0
64854.615966796875,966.0,28.0,6.0,201513.0
64873.298828125,967.0,28.0,6.0,201513.0
64891.981689453125,968.0,29.0,7.0,201514.0
64910.66455078125,969.0,29.0,9.0,201516.0
64929.347412109375,970.0,29.0,11.0,201518.0
64948.0302734375,971.0,31.0,12.0,201519.0
64966.713134765625,972.0,33.0,14.0,201521.0
64985.39599609375,973.0,33.0,15.0,201522.0
65004.07861328125,974.0,34.0,16.0,201523.0
65022.761474609375,975.0,35.0,15.0,201522.0
65041.4443359375,976.0,34.0,15.0,201522.0
65060.127197265625,977.0,36.0,16.0,201523.0
65078.81005859375,978.0,37.0,17.0,201524.0
65097.492919921875,979.0,38.0,16.0,201523.0
65116.17578125,980.0,36.0,12.0,201519.0
65134.858642578125,981.0,30.0,2.0,201509.0
65153.541259765625,982.0,20.0,-9.0,201498.0
65172.22412109375,983.0,9.0,-19.0,201488.0
65190.906982421875,984.0,-3.0,-27.0,201480.0
65209.58984375,985.0,-11.0,-31.0,201476.0
65228.272705078125,986.0,-13.0,-31.0,201476.0
65246.95556640625,987.0,-12.0,-27.0,201480.0
65265.638427734375,988.0,-7.0,-23.0,201484.0
65284.3212890625,989.0,-2.0,-17.0,201490.0
65303.004150390625,990.0,4.0,-11.0,201496.0
65321.686767578125,991.0,9.0,-7.0,201500.0
65340.36962890625,992.0,13.0,-4.0,201503.0
65359.052490234375,993.0,15.0,-2.0,201505.0
65377.7353515625,994.0,16.0,0.0,201507.0
65396.418212890625,995.0,15.0,2.0,201509.0
65415.10107421875,996.0,15.0,3.0,201510.0
65433.783935546875,997.0,15.0,5.0,201512.0
65452.466796875,998.0,15.0,6.0,201513.0
65471.1494140625,999.0,16.0,7.0,201514.0
65489.832275390625,1000.0,18.0,8.0,201515.0
65508.51513671875,1001.0,19.0,8.0,201515.0
65527.197998046875,1002.0,22.0,9.0,201516.0
65545.880859375,1003.0,24.0,10.0,201517.0
65564.56372070312,1004.0,27.0,13.0,201520.0
65583.24658203125,1005.0,28.0,15.0,201522.0
65601.92944335938,1006.0,29.0,17.0,201524.0
65620.6123046875,1007.0,30.0,19.0,201526.0
65639.294921875,1008.0,30.0,21.0,201528.0
65657.97778320312,1009.0,31.0,21.0,201528.0
65676.66064453125,1010.0,32.0,21.0,201528.0
65695.34350585938,1011.0,32.0,20.0,201527.0
65714.0263671875,1012.0,33.0,19.0,201526.0
65732.70922851562,1013.0,34.0,18.0,201525.0
65751.39208984375,1014.0,33.0,16.0,201523.0
65770.07495117188,1015.0,29.0,12.0,201519.0
65788.75756835938,1016.0,19.0,3.0,201510.0
65807.4404296875,1017.0,9.0,-7.0,201500.0
65826.12329101562,1018.0,0.0,-15.0,201492.0
65844.80615234375,1019.0,-5.0,-19.0,201488.0
65863.48901367188,1020.0,-7.0,-20.0,201487.0
65882.171875,1021.0,-5.0,-17.0,201490.0
65900.85473632812,1022.0,0.0,-13.0,201494.0
65919.53759765625,1023.0,5.0,-8.0,201499.0
65938.22021484375,1024.0,8.0,-4.0,201503.0
65956.90307617188,1025.0,10.0,0.0,201507.0
65975.5859375,1026.0,11.0,2.0,201509.0
65994.26879882812,1027.0,11.0,2.0,201509.0
66012.95166015625,1028.0,12.0,1.0,201508.0
66031.63452148438,1029.0,12.0,0.0,201507.0
66050.3173828125,1030.0,11.0,0.0,201507.0
66069.00024414062,1031.0,10.0,0.0,201507.0
66087.68310546875,1032.0,11.0,3.0,201510.0
66106.36572265625,1033.0,13.0,6.0,201513.0
66125.04858398438,1034.0,16.0,9.0,201516.0
66143.7314453125,1035.0,19.0,11.0,201518.0
66162.41430664062,1036.0,21.0,12.0,201519.0
66181.09716796875,1037.0,22.0,12.0,201519.0
66199.78002929688,1038.0,24.0,11.0,201518.0
66218.462890625,1039.0,27.0,12.0,201519.0
66237.14575195312,1040.0,30.0,14.0,201521.0
66255.82836914062,1041.0,33.0,18.0,201525.0
66274.51123046875,1042.0,37.0,21.0,201528.0
66293.19409179688,1043.0,38.0,24.0,201531.0
66311.876953125,1044.0,39.0,25.0,201532.0
66330.55981445312,1045.0,38.0,25.0,201532.0
66349.24267578125,1046.0,37.0,24.0,201531.0
66367.92553710938,1047.0,37.0,22.0,201529.0
66386.6083984375,1048.0,37.0,22.0,201529.0
66405.29125976562,1049.0,37.0,23.0,201530.0
66423.97387695312,1050.0,37.0,23.0,201530.0
66442.65673828125,1051.0,38.0,21.0,201528.0
66461.33959960938,1052.0,33.0,17.0,201524.0
66480.0224609375,1053.0,26.0,8.0,201515.0
66498.70532226562,1054.0,16.0,-5.0,201502.0
66517.38818359375,1055.0,7.0,-16.0,201491.0
66536.07104492188,1056.0,0.0,-24.0,201483.0
66554.75390625,1057.0,-3.0,-28.0,201479.0
66573.4365234375,1058.0,0.0,-26.0,201481.0
66592.11938476562,1059.0,5.0,-22.0,201485.0
66610.80224609375,1060.0,9.0,-17.0,201490.0
66629.48510742188,1061.0,14.0,-11.0,201496.0
66648.16796875,1062.0,19.0,-6.0,201501.0
66666.85083007812,1063.0,22.0,-1.0,201506.0
66685.53369140625,1064.0,26.0,2.0,201509.0
66704.21655273438,1065.0,27.0,3.0,201510.0
66722.8994140625,1066.0,29.0,2.0,201509.0
66741.58203125,1067.0,34.0,-1.0,201506.0
66760.26489257812,1068.0,39.0,-5.0,201502.0
66778.94775390625,1069.0,44.0,-8.0,201499.0
66797.63061523438,1070.0,45.0,-9.0,201498.0
66816.3134765625,1071.0,45.0,-8.0,201499.0
66834.99633789062,1072.0,44.0,-6.0,201501.0
66853.67919921875,1073.0,45.0,-2.0,201505.0
66872.36206054688,1074.0,46.0,1.0,201508.0
66891.04467773438,1075.0,48.0,3.0,201510.0
66909.7275390625,1076.0,47.0,7.0,201514.0
66928.41040039062,1077.0,45.0,11.0,201518.0
66947.09326171875,1078.0,43.0,16.0,201523.0
66965.77612304688,1079.0,42.0,20.0,201527.0
66984.458984375,1080.0,40.0,22.0,201529.0
67003.14184570312,1081.0,39.0,22.0,201529.0
67021.82470703125,1082.0,38.0,22.0,201529.0
67040.50732421875,1083.0,39.0,22.0,201529.0
67059.19018554688,1084.0,40.0,22.0,201529.0
67077.873046875,1085.0,42.0,22.0,201529.0
67096.55590820312,1086.0,40.0,22.0,201529.0
67115.23876953125,1087.0,39.0,22.0,201529.0
67133.92163085938,1088.0,35.0,21.0,201528.0
67152.6044921875,1089.0,29.0,15.0,201522.0
67171.28735351562,1090.0,19.0,5.0,201512.0
67189.97021484375,1091.0,8.0,-6.0,201501.0
67208.65283203125,1092.0,-3.0,-17.0,201490.0
67227.33569335938,1093.0,-8.0,-26.0,201481.0
67246.0185546875,1094.0,-11.0,-29.0,201478.0
67264.70141601562,1095.0,-10.0,-29.0,201478.0
67283.38427734375,1096.0,-6.0,-27.0,201480.0
67302.06713867188,1097.0,-1.0,-22.0,201485.0
67320.75,1098.0,3.0,-18.0,201489.0
67339.43286132812,1099.0,6.0,-15.0,201492.0
67358.11547851562,1100.0,4.0,-14.0,201493.0
67376.79833984375,1101.0,3.0,-12.0,201495.0
67395.48120117188,1102.0,4.0,-11.0,201496.0
67414.1640625,1103.0,7.0,-10.0,201497.0
67432.84692382812,1104.0,11.0,-8.0,201499.0
67451.52978515625,1105.0,13.0,-6.0,201501.0
67470.21264648438,1106.0,14.0,-4.0,201503.0
67488.8955078125,1107.0,16.0,-1.0,201506.0
67507.57836914062,1108.0,18.0,1.0,201508.0
67526.26098632812,1109.0,18.0,2.0,201509.0
67544.94384765625,1110.0,16.0,2.0,201509.0
67563.62670898438,1111.0,13.0,2.0,201509.0
67582.3095703125,1112.0,8.0,2.0,201509.0
67600.99243164062,1113.0,5.0,0.0,201507.0
67619.67529296875,1114.0,2.0,-1.0,201506.0
67638.35815429688,1115.0,-1.0,-2.0,201505.0
67657.041015625,1116.0,-3.0,-1.0,201506.0
67675.7236328125,1117.0,-4.0,0.0,201507.0
67694.40649414062,1118.0,-2.0,1.0,201508.0
67713.08935546875,1119.0,1.0,2.0,201509.0
67731.77221679688,1120.0,3.0,3.0,201510.0
67750.455078125,1121.0,5.0,3.0,201510.0
67769.13793945312,1122.0,6.0,4.0,201511.0
67787.82080078125,1123.0,6.0,4.0,201511.0
67806.50366210938,1124.0,2.0,1.0,201508.0
67825.1865234375,1125.0,-5.0,-6.0,201501.0
67843.869140625,1126.0,-16.0,-15.0,201492.0
67862.55200195312,1127.0,-29.0,-25.0,201482.0
67881.23486328125,1128.0,-40.0,-33.0,201474.0
67899.91772460938,1129.0,-50.0,-39.0,201468.0
67918.6005859375,1130.0,-53.0,-41.0,201466.0
67937.28344726562,1131.0,-54.0,-39.0,201468.0
67955.96630859375,1132.0,-49.0,-35.0,201472.0
67974.64916992188,1133.0,-42.0,-30.0,201477.0
67993.33178710938,1134.0,-32.0,-23.0,201484.0
68012.0146484375,1135.0,-21.0,-17.0,201490.0
68030.69750976562,1136.0,-9.0,-11.0,201496.0
68049.38037109375,1137.0,-2.0,-9.0,201498.0
68068.06323242188,1138.0,2.0,-7.0,201500.0
68086.74609375,1139.0,4.0,-7.0,201500.0
68105.42895507812,1140.0,3.0,-6.0,201501.0
68124.11181640625,1141.0,2.0,-5.0,201502.0
68142.79443359375,1142.0,1.0,-3.0,201504.0
68161.47729492188,1143.0,3.0,-1.0,201506.0
68180.16015625,1144.0,6.0,1.0,201508.0
68198.84301757812,1145.0,9.0,2.0,201509.0
68217.52587890625,1146.0,12.0,4.0,201511.0
68236.20874023438,1147.0,14.0,4.0,201511.0
68254.8916015625,1148.0,19.0,5.0,201512.0
68273.57446289062,1149.0,25.0,6.0,201513.0
68292.25732421875,1150.0,30.0,8.0,201515.0
68310.93994140625,1151.0,33.0,9.0,201516.0
68329.62280273438,1152.0,34.0,11.0,201518.0
68348.3056640625,1153.0,32.0,12.0,201519.0
68366.98852539062,1154.0,27.0,14.0,201521.0
68385.67138671875,1155.0,25.0,14.0,201521.0
68404.35424804688,1156.0,24.0,15.0,201522.0
68423.037109375,1157.0,23.0,15.0,201522.0
68441.71997070312,1158.0,19.0,11.0,201518.0
68460.40258789062,1159.0,12.0,2.0,201509.0
68479.08544921875,1160.0,4.0,-10.0,201497.0
68497.76831054688,1161.0,-4.0,-21.0,201486.0
68516.451171875,1162.0,-11.0,-29.0,201478.0
68535.13403320312,1163.0,-16.0,-33.0,201474.0
68553.81689453125,1164.0,-18.0,-33.0,201474.0
68572.49975585938,1165.0,-17.0,-31.0,201476.0
68591.1826171875,1166.0,-11.0,-27.0,201480.0
68609.86547851562,1167.0,-5.0,-23.0,201484.0
68628.54809570312,1168.0,0.0,-20.0,201487.0
68647.23095703125,1169.0,3.0,-17.0,201490.0
68665.91381835938,1170.0,5.0,-16.0,201491.0
68684.5966796875,1171.0,6.0,-16.0,201491.0
68703.27954101562,1172.0,6.0,-16.0,201491.0
68721.96240234375,1173.0,6.0,-15.0,201492.0
68740.64526367188,1174.0,7.0,-12.0,201495.0
68759.328125,1175.0,10.0,-7.0,201500.0
68778.0107421875,1176.0,15.0,-3.0,201504.0
68796.69360351562,1177.0,20.0,1.0,201508.0
68815.37646484375,1178.0,23.0,5.0,201512.0
68834.05932617188,1179.0,25.0,7.0,201514.0
68852.7421875,1180.0,25.0,9.0,201516.0
68871.42504882812,1181.0,25.0,9.0,201516.0
68890.10791015625,1182.0,26.0,9.0,201516.0
68908.79077148438,1183.0,24.0,10.0,201517.0
68927.4736328125,1184.0,24.0,11.0,201518.0
68946.15625,1185.0,24.0,12.0,201519.0
68964.83911132812,1186.0,24.0,13.0,201520.0
68983.52197265625,1187.0,25.0,15.0,201522.0
69002.20483398438,1188.0,27.0,17.0,201524.0
69020.8876953125,1189.0,29.0,18.0,201525.0
69039.57055664062,1190.0,29.0,18.0,201525.0
69058.25341796875,1191.0,28.0,14.0,201521.0
69076.93627929688,1192.0,22.0,6.0,201513.0
69095.61889648438,1193.0,12.0,-5.0,201502.0
69114.3017578125,1194.0,-1.0,-16.0,201491.0
69132.98461914062,1195.0,-13.0,-27.0,201480.0
69151.66748046875,1196.0,-21.0,-34.0,201473.0
69170.35034179688,1197.0,-26.0,-36.0,201471.0
69189.033203125,1198.0,-28.0,-36.0,201471.0
69207.71606445312,1199.0,-27.0,-32.0,201475.0
69226.39892578125,1200.0,-23.0,-27.0,201480.0
69245.08154296875,1201.0,-19.0,-21.0,201486.0
69263.76440429688,1202.0,-16.0,-16.0,201491.0
69282.447265625,1203.0,-15.0,-13.0,201494.0
69301.13012695312,1204.0,-13.0,-11.0,201496.0
69319.81298828125,1205.0,-13.0,-11.0,201496.0
69338.49584960938,1206.0,-13.0,-11.0,201496.0
69357.1787109375,1207.0,-10.0,-11.0,201496.0
69375.86157226562,1208.0,-4.0,-9.0,201498.0
69394.54443359375,1209.0,4.0,-5.0,201502.0
69413.22705078125,1210.0,14.0,0.0,201507.0
69431.90991210938,1211.0,23.0,3.0,201510.0
69450.5927734375,1212.0,28.0,6.0,201513.0
69469.27563476562,1213.0,29.0,7.0,201514.0
69487.95849609375,1214.0,31.0,7.0,201514.0
69506.64135742188,1215.0,33.0,9.0,201516.0
69525.32421875,1216.0,33.0,11.0,201518.0
69544.00708007812,1217.0,32.0,13.0,201520.0
69562.68969726562,1218.0,30.0,15.0,201522.0
69581.37255859375,1219.0,28.0,17.0,201524.0
69600.05541992188,1220.0,29.0,18.0,201525.0
69618.73828125,1221.0,30.0,18.0,201525.0
69637.42114257812,1222.0,30.0,18.0,201525.0
69656.10400390625,1223.0,32.0,19.0,201526.0
69674.78686523438,1224.0,31.0,17.0,201524.0
69693.4697265625,1225.0,25.0,13.0,201520.0
69712.15258789062,1226.0,17.0,4.0,201511.0
69730.83520507812,1227.0,7.0,-5.0,201502.0
69749.51806640625,1228.0,-3.0,-15.0,201492.0
69768.20092773438,1229.0,-11.0,-22.0,201485.0
69786.8837890625,1230.0,-15.0,-27.0,201480.0
69805.56665039062,1231.0,-15.0,-29.0,201478.0
69824.24951171875,1232.0,-12.0,-26.0,201481.0
69842.93237304688,1233.0,-9.0,-23.0,201484.0
69861.615234375,1234.0,-4.0,-18.0,201489.0
69880.2978515625,1235.0,0.0,-13.0,201494.0
69898.98071289062,1236.0,3.0,-8.0,201499.0
69917.66357421875,1237.0,5.0,-4.0,201503.0
69936.34643554688,1238.0,5.0,-2.0,201505.0
69955.029296875,1239.0,6.0,-1.0,201506.0
69973.71215820312,1240.0,8.0,-1.0,201506.0
69992.39501953125,1241.0,11.0,0.0,201507.0
70011.07788085938,1242.0,14.0,1.0,201508.0
70029.76049804688,1243.0,16.0,4.0,201511.0
70048.443359375,1244.0,17.0,7.0,201514.0
70067.12622070312,1245.0,18.0,10.0,201517.0
70085.80908203125,1246.0,16.0,12.0,201519.0
70104.49194335938,1247.0,15.0,12.0,201519.0
70123.1748046875,1248.0,14.0,13.0,201520.0
70141.85766601562,1249.0,16.0,15.0,201522.0
70160.54052734375,1250.0,19.0,17.0,201524.0
70179.22338867188,1251.0,22.0,19.0,201526.0
70197.90600585938,1252.0,25.0,20.0,201527.0
70216.5888671875,1253.0,28.0,19.0,201526.0
70235.27172851562,1254.0,29.0,19.0,201526.0
70253.95458984375,1255.0,28.0,18.0,201525.0
70272.63745117188,1256.0,26.0,17.0,201524.0
70291.3203125,1257.0,22.0,14.0,201521.0
70310.00317382812,1258.0,18.0,11.0,201518.0
70328.68603515625,1259.0,16.0,8.0,201515.0
70347.36865234375,1260.0,13.0,3.0,201510.0
70366.05151367188,1261.0,7.0,-4.0,201503.0
70384.734375,1262.0,0.0,-14.0,201493.0
70403.41723632812,1263.0,-8.0,-24.0,201483.0
70422.10009765625,1264.0,-14.0,-31.0,201476.0
70440.78295898438,1265.0,-16.0,-34.0,201473.0
70459.4658203125,1266.0,-15.0,-35.0,201472.0
70478.14868164062,1267.0,-12.0,-32.0,201475.0
70496.83154296875,1268.0,-6.0,-28.0,201479.0
70515.51416015625,1269.0,-2.0,-24.0,201483.0
70534.19702148438,1270.0,0.0,-19.0,201488.0
70552.8798828125,1271.0,2.0,-16.0,201491.0
70571.56274414062,1272.0,3.0,-14.0,201493.0
70590.24560546875,1273.0,4.0,-14.0,201493.0
70608.92846679688,1274.0,4.0,-13.0,201494.0
70627.611328125,1275.0,5.0,-13.0,201494.0
70646.29418945312,1276.0,5.0,-14.0,201493.0
70664.97680664062,1277.0,5.0,-14.0,201493.0
70683.65966796875,1278.0,6.0,-16.0,201491.0
70702.34252929688,1279.0,8.0,-17.0,201490.0
70721.025390625,1280.0,10.0,-15.0,201492.0
70739.70825195312,1281.0,11.0,-14.0,201493.0
70758.39111328125,1282.0,11.0,-12.0,201495.0
70777.07397460938,1283.0,10.0,-9.0,201498.0
70795.7568359375,1284.0,9.0,-6.0,201501.0
70814.43969726562,1285.0,8.0,-2.0,201505.0
70833.12231445312,1286.0,8.0,3.0,201510.0
70851.80517578125,1287.0,10.0,6.0,201513.0
70870.48803710938,1288.0,11.0,9.0,201516.0
70889.1708984375,1289.0,12.0,10.0,201517.0
70907.85375976562,1290.0,13.0,12.0,201519.0
70926.53662109375,1291.0,13.0,13.0,201520.0
70945.21948242188,1292.0,12.0,14.0,201521.0
70963.90234375,1293.0,12.0,14.0,201521.0
70982.5849609375,1294.0,12.0,11.0,201518.0
71001.26782226562,1295.0,7.0,5.0,201512.0
71019.95068359375,1296.0,-2.0,-5.0,201502.0
71038.63354492188,1297.0,-12.0,-16.0,201491.0
71057.31640625,1298.0,-21.0,-25.0,201482.0
71075.99926757812,1299.0,-27.0,-31.0,201476.0
71094.68212890625,1300.0,-29.0,-33.0,201474.0
71113.36499023438,1301.0,-26.0,-31.0,201476.0
71132.04760742188,1302.0,-20.0,-26.0,201481.0
71150.73046875,1303.0,-15.0,-22.0,201485.0
71169.41333007812,1304.0,-11.0,-18.0,201489.0
71188.09619140625,1305.0,-8.0,-14.0,201493.0
71206.77905273438,1306.0,-7.0,-11.0,201496.0
71225.4619140625,1307.0,-4.0,-10.0,201497.0
71244.14477539062,1308.0,-2.0,-8.0,201499.0
71262.82763671875,1309.0,0.0,-7.0,201500.0
71281.51049804688,1310.0,1.0,-4.0,201503.0
71300.19311523438,1311.0,3.0,-2.0,201505.0
71318.8759765625,1312.0,6.0,2.0,201509.0
71337.55883789062,1313.0,8.0,6.0,201513.0
71356.24169921875,1314.0,10.0,9.0,201516.0
71374.92456054688,1315.0,10.0,9.0,201516.0
71393.607421875,1316.0,8.0,9.0,201516.0
71412.29028320312,1317.0,6.0,8.0,201515.0
71430.97314453125,1318.0,5.0,8.0,201515.0
71449.65576171875,1319.0,6.0,9.0,201516.0
71468.33862304688,1320.0,8.0,12.0,201519.0
71487.021484375,1321.0,11.0,14.0,201521.0
71505.70434570312,1322.0,15.0,14.0,201521.0
71524.38720703125,1323.0,20.0,15.0,201522.0
71543.07006835938,1324.0,22.0,16.0,201523.0
71561.7529296875,1325.0,24.0,16.0,201523.0
71580.43579101562,1326.0,25.0,17.0,201524.0
71599.11865234375,1327.0,25.0,15.0,201522.0
71617.80126953125,1328.0,18.0,10.0,201517.0
71636.48413085938,1329.0,9.0,1.0,201508.0
71655.1669921875,1330.0,-1.0,-10.0,201497.0
71673.84985351562,1331.0,-9.0,-20.0,201487.0
71692.53271484375,1332.0,-13.0,-26.0,201481.0
71711.21557617188,1333.0,-15.0,-29.0,201478.0
71729.8984375,1334.0,-14.0,-29.0,201478.0
71748.58129882812,1335.0,-10.0,-25.0,201482.0
71767.26391601562,1336.0,-5.0,-23.0,201484.0
71785.94677734375,1337.0,4.0,-23.0,201484.0
71804.62963867188,1338.0,15.0,-23.0,201484.0
71823.3125,1339.0,25.0,-21.0,201486.0
71841.99536132812,1340.0,33.0,-21.0,201486.0
71860.67822265625,1341.0,39.0,-21.0,201486.0
71879.36108398438,1342.0,42.0,-20.0,201487.0
71898.0439453125,1343.0,44.0,-17.0,201490.0
71916.72680664062,1344.0,42.0,-13.0,201494.0
71935.40942382812,1345.0,40.0,-8.0,201499.0
71954.09228515625,1346.0,37.0,-3.0,201504.0
71972.77514648438,1347.0,35.0,1.0,201508.0
71991.4580078125,1348.0,34.0,3.0,201510.0
72010.14086914062,1349.0,32.0,4.0,201511.0
72028.82373046875,1350.0,31.0,5.0,201512.0
72047.50659179688,1351.0,31.0,6.0,201513.0
72066.189453125,1352.0,29.0,8.0,201515.0
72084.8720703125,1353.0,29.0,10.0,201517.0
72103.55493164062,1354.0,29.0,12.0,201519.0
72122.23779296875,1355.0,30.0,14.0,201521.0
72140.92065429688,1356.0,30.0,15.0,201522.0
72159.603515625,1357.0,30.0,14.0,201521.0
72178.28637695312,1358.0,29.0,14.0,201521.0
72196.96923828125,1359.0,28.0,14.0,201521.0
72215.65209960938,1360.0,26.0,14.0,201521.0
72234.33471679688,1361.0,24.0,12.0,201519.0
72253.017578125,1362.0,19.0,6.0,201513.0
72271.70043945312,1363.0,11.0,-3.0,201504.0
72290.38330078125,1364.0,2.0,-13.0,201494.0
72309.06616210938,1365.0,-4.0,-23.0,201484.0
72327.7490234375,1366.0,-7.0,-30.0,201477.0
72346.43188476562,1367.0,-7.0,-33.0,201474.0
72365.11474609375,1368.0,-5.0,-32.0,201475.0
72383.79760742188,1369.0,-1.0,-30.0,201477.0
72402.48022460938,1370.0,2.0,-25.0,201482.0
72421.1630859375,1371.0,4.0,-20.0,201487.0
72439.84594726562,1372.0,5.0,-15.0,201492.0
72458.52880859375,1373.0,6.0,-12.0,201495.0
72477.21166992188,1374.0,7.0,-9.0,201498.0
72495.89453125,1375.0,7.0,-7.0,201500.0
72514.57739257812,1376.0,9.0,-3.0,201504.0
72533.26025390625,1377.0,11.0,-1.0,201506.0
72551.94287109375,1378.0,15.0,2.0,201509.0
72570.62573242188,1379.0,19.0,5.0,201512.0
72589.30859375,1380.0,22.0,8.0,201515.0
72607.99145507812,1381.0,24.0,9.0,201516.0
72626.67431640625,1382.0,25.0,10.0,201517.0
72645.35717773438,1383.0,26.0,11.0,201518.0
72664.0400390625,1384.0,26.0,11.0,201518.0
72682.72290039062,1385.0,27.0,11.0,201518.0
72701.40576171875,1386.0,27.0,12.0,201519.0
72720.08837890625,1387.0,30.0,14.0,201521.0
72738.77124023438,1388.0,32.0,15.0,201522.0
72757.4541015625,1389.0,33.0,16.0,201523.0
72776.13696289062,1390.0,32.0,17.0,201524.0
72794.81982421875,1391.0,30.0,18.0,201525.0
72813.50268554688,1392.0,28.0,17.0,201524.0
72832.185546875,1393.0,27.0,15.0,201522.0
72850.86840820312,1394.0,26.0,13.0,201520.0
72869.55102539062,1395.0,26.0,12.0,201519.0
72888.23388671875,1396.0,27.0,12.0,201519.0
72906.91674804688,1397.0,29.0,12.0,201519.0
72925.599609375,1398.0,27.0,10.0,201517.0
72944.28247070312,1399.0,23.0,4.0,201511.0
72962.96533203125,1400.0,15.0,-5.0,201502.0
72981.64819335938,1401.0,6.0,-15.0,201492.0
73000.3310546875,1402.0,-2.0,-24.0,201483.0
73019.01391601562,1403.0,-7.0,-29.0,201478.0
73037.69653320312,1404.0,-8.0,-29.0,201478.0
73056.37939453125,1405.0,-7.0,-27.0,201480.0
73075.06225585938,1406.0,-5.0,-23.0,201484.0
73093.7451171875,1407.0,-1.0,-18.0,201489.0
73112.42797851562,1408.0,4.0,-14.0,201493.0
73131.11083984375,1409.0,8.0,-11.0,201496.0
73149.79370117188,1410.0,11.0,-8.0,201499.0
73168.4765625,1411.0,12.0,-5.0,201502.0
73187.1591796875,1412.0,11.0,-4.0,201503.0
73205.84204101562,1413.0,9.0,-3.0,201504.0
73224.52490234375,1414.0,8.0,-2.0,201505.0
73243.20776367188,1415.0,8.0,0.0,201507.0
73261.890625,1416.0,9.0,3.0,201510.0
73280.57348632812,1417.0,12.0,6.0,201513.0
73299.25634765625,1418.0,14.0,8.0,201515.0
73317.93920898438,1419.0,18.0,9.0,201516.0
73336.62182617188,1420.0,20.0,10.0,201517.0
73355.3046875,1421.0,22.0,11.0,201518.0
73373.98754882812,1422.0,23.0,12.0,201519.0
73392.67041015625,1423.0,22.0,14.0,201521.0
73411.35327148438,1424.0,20.0,15.0,201522.0
73430.0361328125,1425.0,21.0,16.0,201523.0
73448.71899414062,1426.0,22.0,18.0,201525.0
73467.40185546875,1427.0,21.0,18.0,201525.0
73486.08471679688,1428.0,19.0,18.0,201525.0
73504.76733398438,1429.0,15.0,17.0,201524.0
73523.4501953125,1430.0,9.0,13.0,201520.0
73542.13305664062,1431.0,4.0,12.0,201519.0
73560.81591796875,1432.0,2.0,12.0,201519.0
73579.49877929688,1433.0,3.0,12.0,201519.0
73598.181640625,1434.0,7.0,11.0,201518.0
73616.86450195312,1435.0,11.0,9.0,201516.0
73635.54736328125,1436.0,10.0,4.0,201511.0
73654.22998046875,1437.0,5.0,-2.0,201505.0
73672.91284179688,1438.0,-3.0,-10.0,201497.0
73691.595703125,1439.0,-9.0,-16.0,201491.0
73710.27856445312,1440.0,-15.0,-20.0,201487.0
73728.96142578125,1441.0,-19.0,-21.0,201486.0
73747.64428710938,1442.0,-18.0,-20.0,201487.0
73766.3271484375,1443.0,-14.0,-16.0,201491.0
73785.01000976562,1444.0,-7.0,-12.0,201495.0
73803.69287109375,1445.0,-1.0,-8.0,201499.0
73822.37548828125,1446.0,3.0,-4.0,201503.0
73841.05834960938,1447.0,5.0,-1.0,201506.0
73859.7412109375,1448.0,7.0,0.0,201507.0
73878.42407226562,1449.0,10.0,1.0,201508.0
73897.10693359375,1450.0,12.0,3.0,201510.0
73915.78979492188,1451.0,15.0,5.0,201512.0
73934.47265625,1452.0,16.0,7.0,201514.0
73953.15551757812,1453.0,17.0,10.0,201517.0
73971.83813476562,1454.0,18.0,12.0,201519.0
73990.52099609375,1455.0,18.0,13.0,201520.0
74009.20385742188,1456.0,19.0,14.0,201521.0
74027.88671875,1457.0,21.0,13.0,201520.0
74046.56958007812,1458.0,23.0,13.0,201520.0
74065.25244140625,1459.0,23.0,14.0,201521.0
74083.93530273438,1460.0,24.0,14.0,201521.0
74102.6181640625,1461.0,24.0,15.0,201522.0
74121.30102539062,1462.0,24.0,15.0,201522.0
74139.98364257812,1463.0,23.0,15.0,201522.0
74158.66650390625,1464.0,25.0,16.0,201523.0
74177.34936523438,1465.0,27.0,17.0,201524.0
74196.0322265625,1466.0,27.0,17.0,201524.0
74214.71508789062,1467.0,26.0,18.0,201525.0
74233.39794921875,1468.0,25.0,18.0,201525.0
74252.08081054688,1469.0,22.0,15.0,201522.0
74270.763671875,1470.0,15.0,9.0,201516.0
74289.4462890625,1471.0,5.0,-1.0,201506.0
74308.12915039062,1472.0,-5.0,-12.0,201495.0
74326.81201171875,1473.0,-14.0,-22.0,201485.0
74345.49487304688,1474.0,-21.0,-29.0,201478.0
74364.177734375,1475.0,-23.0,-31.0,201476.0
74382.86059570312,1476.0,-21.0,-30.0,201477.0
74401.54345703125,1477.0,-16.0,-25.0,201482.0
74420.22631835938,1478.0,-10.0,-19.0,201488.0
74438.90893554688,1479.0,-5.0,-14.0,201493.0
74457.591796875,1480.0,-1.0,-9.0,201498.0
74476.27465820312,1481.0,2.0,-6.0,201501.0
74494.95751953125,1482.0,5.0,-3.0,201504.0
74513.64038085938,1483.0,5.0,-1.0,201506.0
74532.3232421875,1484.0,5.0,0.0,201507.0
74551.00610351562,1485.0,3.0,1.0,201508.0
74569.68896484375,1486.0,1.0,2.0,201509.0
74588.37182617188,1487.0,-1.0,2.0,201509.0
74607.05444335938,1488.0,-2.0,3.0,201510.0
74625.7373046875,1489.0,0.0,3.0,201510.0
74644.42016601562,1490.0,2.0,4.0,201511.0
74663.10302734375,1491.0,5.0,4.0,201511.0
74681.78588867188,1492.0,6.0,4.0,201511.0
74700.46875,1493.0,7.0,4.0,201511.0
74719.15161132812,1494.0,7.0,5.0,201512.0
74737.83447265625,1495.0,8.0,7.0,201514.0
74756.51708984375,1496.0,9.0,9.0,201516.0
74775.19995117188,1497.0,10.0,11.0,201518.0
74793.8828125,1498.0,11.0,14.0,201521.0
74812.56567382812,1499.0,12.0,16.0,201523.0
74831.24853515625,1500.0,11.0,17.0,201524.0
74849.93139648438,1501.0,10.0,19.0,201526.0
74868.6142578125,1502.0,9.0,19.0,201526.0
74887.29711914062,1503.0,7.0,18.0,201525.0
74905.97998046875,1504.0,6.0,16.0,201523.0
74924.66259765625,1505.0,2.0,10.0,201517.0
74943.34545898438,1506.0,-5.0,2.0,201509.0
74962.0283203125,1507.0,-13.0,-9.0,201498.0
74980.71118164062,1508.0,-22.0,-19.0,201488.0
74999.39404296875,1509.0,-28.0,-26.0,201481.0
75018.07690429688,1510.0,-32.0,-30.0,201477.0
75036.759765625,1511.0,-33.0,-30.0,201477.0
75055.44262695312,1512.0,-30.0,-26.0,201481.0
75074.12524414062,1513.0,-25.0,-22.0,201485.0
75092.80810546875,1514.0,-19.0,-16.0,201491.0
75111.49096679688,1515.0,-13.0,-11.0,201496.0
75130.173828125,1516.0,-5.0,-6.0,201501.0
75148.85668945312,1517.0,-1.0,-2.0,201505.0
75167.53955078125,1518.0,3.0,0.0,201507.0
75186.22241210938,1519.0,6.0,3.0,201510.0
75204.9052734375,1520.0,9.0,4.0,201511.0
75223.58813476562,1521.0,11.0,6.0,201513.0
75242.27075195312,1522.0,10.0,7.0,201514.0
75260.95361328125,1523.0,9.0,8.0,201515.0
75279.63647460938,1524.0,5.0,8.0,201515.0
75298.3193359375,1525.0,1.0,8.0,201515.0
75317.00219726562,1526.0,-2.0,8.0,201515.0
75335.68505859375,1527.0,-3.0,8.0,201515.0
75354.36791992188,1528.0,-2.0,9.0,201516.0
75373.05078125,1529.0,0.0,11.0,201518.0
75391.7333984375,1530.0,3.0,14.0,201521.0
75410.41625976562,1531.0,7.0,17.0,201524.0
75429.09912109375,1532.0,12.0,18.0,201525.0
75447.78198242188,1533.0,17.0,20.0,201527.0
75466.46484375,1534.0,21.0,23.0,201530.0
75485.14770507812,1535.0,24.0,24.0,201531.0
75503.83056640625,1536.0,26.0,25.0,201532.0
75522.51342773438,1537.0,28.0,25.0,201532.0
75541.19604492188,1538.0,31.0,26.0,201533.0
75559.87890625,1539.0,32.0,26.0,201533.0
75578.56176757812,1540.0,32.0,26.0,201533.0
75597.24462890625,1541.0,30.0,26.0,201533.0
75615.92749023438,1542.0,22.0,21.0,201528.0
75634.6103515625,1543.0,13.0,11.0,201518.0
75653.29321289062,1544.0,2.0,-1.0,201506.0
75671.97607421875,1545.0,-9.0,-11.0,201496.0
75690.65893554688,1546.0,-18.0,-19.0,201488.0
75709.34155273438,1547.0,-25.0,-22.0,201485.0
75728.0244140625,1548.0,-29.0,-23.0,201484.0
75746.70727539062,1549.0,-28.0,-20.0,201487.0
75765.39013671875,1550.0,-25.0,-15.0,201492.0
75784.07299804688,1551.0,-21.0,-8.0,201499.0
75802.755859375,1552.0,-17.0,-3.0,201504.0
75821.43872070312,1553.0,-13.0,1.0,201508.0
75840.12158203125,1554.0,-9.0,5.0,201512.0
75858.80419921875,1555.0,-5.0,7.0,201514.0
75877.48706054688,1556.0,-2.0,8.0,201515.0
75896.169921875,1557.0,0.0,9.0,201516.0
75914.85278320312,1558.0,4.0,10.0,201517.0
75933.53564453125,1559.0,8.0,10.0,201517.0
75952.21850585938,1560.0,11.0,11.0,201518.0
75970.9013671875,1561.0,13.0,10.0,201517.0
75989.58422851562,1562.0,13.0,9.0,201516.0
76008.26708984375,1563.0,13.0,8.0,201515.0
76026.94970703125,1564.0,13.0,8.0,201515.0
76045.63256835938,1565.0,11.0,10.0,201517.0
76064.3154296875,1566.0,11.0,12.0,201519.0
76082.99829101562,1567.0,12.0,13.0,201520.0
76101.68115234375,1568.0,13.0,14.0,201521.0
76120.36401367188,1569.0,16.0,16.0,201523.0
76139.046875,1570.0,18.0,17.0,201524.0
76157.72973632812,1571.0,18.0,18.0,201525.0
76176.41235351562,1572.0,19.0,19.0,201526.0
76195.09521484375,1573.0,20.0,19.0,201526.0
76213.77807617188,1574.0,20.0,20.0,201527.0
76232.4609375,1575.0,22.0,21.0,201528.0
76251.14379882812,1576.0,23.0,22.0,201529.0
76269.82666015625,1577.0,25.0,23.0,201530.0
76288.50952148438,1578.0,27.0,23.0,201530.0
76307.1923828125,1579.0,24.0,20.0,201527.0
76325.87524414062,1580.0,17.0,14.0,201521.0
76344.55786132812,1581.0,7.0,4.0,201511.0
76363.24072265625,1582.0,-4.0,-8.0,201499.0
76381.92358398438,1583.0,-14.0,-18.0,201489.0
76400.6064453125,1584.0,-21.0,-26.0,201481.0
76419.28930664062,1585.0,-25.0,-29.0,201478.0
76437.97216796875,1586.0,-23.0,-27.0,201480.0
76456.65502929688,1587.0,-20.0,-22.0,201485.0
76475.337890625,1588.0,-16.0,-17.0,201490.0
76494.0205078125,1589.0,-12.0,-12.0,201495.0
76512.70336914062,1590.0,-8.0,-9.0,201498.0
76531.38623046875,1591.0,-6.0,-5.0,201502.0
76550.06909179688,1592.0,-4.0,-3.0,201504.0
76568.751953125,1593.0,-2.0,-2.0,201505.0
76587.43481445312,1594.0,0.0,-1.0,201506.0
76606.11767578125,1595.0,2.0,1.0,201508.0
76624.80053710938,1596.0,2.0,2.0,201509.0
76643.48315429688,1597.0,4.0,2.0,201509.0
76662.166015625,1598.0,5.0,3.0,201510.0
76680.84887695312,1599.0,7.0,5.0,201512.0
76699.53173828125,1600.0,11.0,7.0,201514.0
76718.21459960938,1601.0,15.0,9.0,201516.0
76736.8974609375,1602.0,21.0,8.0,201515.0
76755.58032226562,1603.0,27.0,9.0,201516.0
76774.26318359375,1604.0,32.0,10.0,201517.0
76792.94604492188,1605.0,36.0,12.0,201519.0
76811.62866210938,1606.0,39.0,14.0,201521.0
76830.3115234375,1607.0,42.0,17.0,201524.0
76848.99438476562,1608.0,42.0,21.0,201528.0
76867.67724609375,1609.0,43.0,24.0,201531.0
76886.36010742188,1610.0,43.0,27.0,201534.0
76905.04296875,1611.0,42.0,30.0,201537.0
76923.72583007812,1612.0,40.0,30.0,201537.0
76942.40869140625,1613.0,37.0,28.0,201535.0
76961.09130859375,1614.0,29.0,21.0,201528.0
76979.77416992188,1615.0,19.0,10.0,201517.0
76998.45703125,1616.0,8.0,-2.0,201505.0
77017.13989257812,1617.0,0.0,-11.0,201496.0
77035.82275390625,1618.0,-6.0,-16.0,201491.0
77054.50561523438,1619.0,-6.0,-18.0,201489.0
77073.1884765625,1620.0,-4.0,-18.0,201489.0
77091.87133789062,1621.0,-1.0,-16.0,201491.0
77110.55419921875,1622.0,3.0,-13.0,201494.0
77129.23681640625,1623.0,8.0,-8.0,201499.0
77147.91967773438,1624.0,12.0,-5.0,201502.0
77166.6025390625,1625.0,15.0,-2.0,201505.0
77185.28540039062,1626.0,16.0,-1.0,201506.0
77203.96826171875,1627.0,18.0,-1.0,201506.0
77222.65112304688,1628.0,18.0,0.0,201507.0
77241.333984375,1629.0,18.0,2.0,201509.0
77260.01684570312,1630.0,19.0,5.0,201512.0
77278.69946289062,1631.0,19.0,7.0,201514.0
77297.38232421875,1632.0,21.0,10.0,201517.0
77316.06518554688,1633.0,23.0,12.0,201519.0
77334.748046875,1634.0,24.0,13.0,201520.0
77353.43090820312,1635.0,24.0,15.0,201522.0
77372.11376953125,1636.0,27.0,17.0,201524.0
77390.79663085938,1637.0,33.0,18.0,201525.0
77409.4794921875,1638.0,39.0,19.0,201526.0
77428.16235351562,1639.0,44.0,20.0,201527.0
77446.84497070312,1640.0,47.0,20.0,201527.0
77465.52783203125,1641.0,49.0,21.0,201528.0
77484.21069335938,1642.0,49.0,23.0,201530.0
77502.8935546875,1643.0,48.0,25.0,201532.0
77521.57641601562,1644.0,45.0,25.0,201532.0
77540.25927734375,1645.0,41.0,25.0,201532.0
77558.94213867188,1646.0,37.0,25.0,201532.0
77577.625,1647.0,35.0,24.0,201531.0
77596.3076171875,1648.0,29.0,20.0,201527.0
77614.99047851562,1649.0,22.0,13.0,201520.0
77633.67333984375,1650.0,14.0,3.0,201510.0
77652.35620117188,1651.0,6.0,-7.0,201500.0
77671.0390625,1652.0,1.0,-15.0,201492.0
77689.72192382812,1653.0,-2.0,-19.0,201488.0
77708.40478515625,1654.0,-2.0,-20.0,201487.0
77727.08764648438,1655.0,-1.0,-17.0,201490.0
77745.77026367188,1656.0,2.0,-12.0,201495.0
77764.453125,1657.0,6.0,-7.0,201500.0
77783.13598632812,1658.0,10.0,-3.0,201504.0
77801.81884765625,1659.0,12.0,0.0,201507.0
77820.50170898438,1660.0,13.0,3.0,201510.0
77839.1845703125,1661.0,13.0,5.0,201512.0
77857.86743164062,1662.0,12.0,6.0,201513.0
77876.55029296875,1663.0,9.0,6.0,201513.0
77895.23315429688,1664.0,5.0,5.0,201512.0
77913.91577148438,1665.0,3.0,4.0,201511.0
77932.5986328125,1666.0,2.0,4.0,201511.0
77951.28149414062,1667.0,2.0,5.0,201512.0
77969.96435546875,1668.0,2.0,6.0,201513.0
77988.64721679688,1669.0,2.0,6.0,201513.0
78007.330078125,1670.0,3.0,5.0,201512.0
78026.01293945312,1671.0,3.0,4.0,201511.0
78044.69580078125,1672.0,3.0,4.0,201511.0
78063.37841796875,1673.0,4.0,4.0,201511.0
78082.06127929688,1674.0,5.0,5.0,201512.0
78100.744140625,1675.0,5.0,7.0,201514.0
78119.42700195312,1676.0,6.0,10.0,201517.0
78138.10986328125,1677.0,8.0,13.0,201520.0
78156.79272460938,1678.0,11.0,16.0,201523.0
78175.4755859375,1679.0,15.0,18.0,201525.0
78194.15844726562,1680.0,20.0,19.0,201526.0
78212.84130859375,1681.0,24.0,21.0,201528.0
78231.52392578125,1682.0,25.0,22.0,201529.0
78250.20678710938,1683.0,23.0,19.0,201526.0
78268.8896484375,1684.0,16.0,12.0,201519.0
78287.57250976562,1685.0,6.0,2.0,201509.0
78306.25537109375,1686.0,-4.0,-9.0,201498.0
78324.93823242188,1687.0,-13.0,-19.0,201488.0
78343.62109375,1688.0,-19.0,-24.0,201483.0
78362.30395507812,1689.0,-21.0,-26.0,201481.0
78380.98657226562,1690.0,-18.0,-24.0,201483.0
78399.66943359375,1691.0,-10.0,-17.0,201490.0
78418.35229492188,1692.0,1.0,-10.0,201497.0
78437.03515625,1693.0,12.0,-2.0,201505.0
78455.71801757812,1694.0,23.0,4.0,201511.0
78474.40087890625,1695.0,29.0,9.0,201516.0
78493.08374023438,1696.0,34.0,11.0,201518.0
78511.7666015625,1697.0,37.0,13.0,201520.0
78530.44946289062,1698.0,37.0,14.0,201521.0
78549.13208007812,1699.0,38.0,15.0,201522.0
78567.81494140625,1700.0,38.0,18.0,201525.0
78586.49780273438,1701.0,38.0,21.0,201528.0
78605.1806640625,1702.0,37.0,22.0,201529.0
78623.86352539062,1703.0,37.0,23.0,201530.0
78642.54638671875,1704.0,37.0,21.0,201528.0
78661.22924804688,1705.0,36.0,20.0,201527.0
78679.912109375,1706.0,35.0,18.0,201525.0
78698.5947265625,1707.0,34.0,18.0,201525.0
78717.27758789062,1708.0,33.0,17.0,201524.0
78735.96044921875,1709.0,32.0,18.0,201525.0
78754.64331054688,1710.0,31.0,20.0,201527.0
78773.326171875,1711.0,32.0,22.0,201529.0
78792.00903320312,1712.0,33.0,24.0,201531.0
78810.69189453125,1713.0,37.0,24.0,201531.0
78829.37475585938,1714.0,40.0,25.0,201532.0
78848.05737304688,1715.0,42.0,26.0,201533.0
78866.740234375,1716.0,43.0,26.0,201533.0
78885.42309570312,1717.0,41.0,27.0,201534.0
78904.10595703125,1718.0,41.0,28.0,201535.0
78922.78881835938,1719.0,39.0,27.0,201534.0
78941.4716796875,1720.0,37.0,26.0,201533.0
78960.15454101562,1721.0,32.0,22.0,201529.0
78978.83740234375,1722.0,23.0,13.0,201520.0
78997.52026367188,1723.0,11.0,-1.0,201506.0
79016.20288085938,1724.0,-1.0,-12.0,201495.0
79034.8857421875,1725.0,-9.0,-20.0,201487.0
79053.56860351562,1726.0,-12.0,-25.0,201482.0
79072.25146484375,1727.0,-11.0,-26.0,201481.0
79090.93432617188,1728.0,-8.0,-24.0,201483.0
79109.6171875,1729.0,-4.0,-18.0,201489.0
79128.30004882812,1730.0,0.0,-13.0,201494.0
79146.98291015625,1731.0,4.0,-9.0,201498.0
79165.66552734375,1732.0,7.0,-4.0,201503.0
79184.34838867188,1733.0,10.0,0.0,201507.0
79203.03125,1734.0,11.0,3.0,201510.0
79221.71411132812,1735.0,10.0,3.0,201510.0
79240.39697265625,1736.0,7.0,2.0,201509.0
79259.07983398438,1737.0,5.0,0.0,201507.0
79277.7626953125,1738.0,4.0,0.0,201507.0
79296.44555664062,1739.0,4.0,0.0,201507.0
79315.12841796875,1740.0,4.0,1.0,201508.0
79333.81103515625,1741.0,4.0,0.0,201507.0
79352.49389648438,1742.0,3.0,-1.0,201506.0
79371.1767578125,1743.0,2.0,-2.0,201505.0
79389.85961914062,1744.0,2.0,-3.0,201504.0
79408.54248046875,1745.0,1.0,-4.0,201503.0
79427.22534179688,1746.0,1.0,-5.0,201502.0
79445.908203125,1747.0,2.0,-5.0,201502.0
79464.59106445312,1748.0,4.0,-3.0,201504.0
79483.27368164062,1749.0,6.0,-2.0,201505.0
79501.95654296875,1750.0,8.0,1.0,201508.0
79520.63940429688,1751.0,10.0,4.0,201511.0
79539.322265625,1752.0,11.0,7.0,201514.0
79558.00512695312,1753.0,13.0,9.0,201516.0
79576.68798828125,1754.0,14.0,10.0,201517.0
79595.37084960938,1755.0,15.0,9.0,201516.0
79614.0537109375,1756.0,12.0,5.0,201512.0
79632.73657226562,1757.0,8.0,-2.0,201505.0
79651.41918945312,1758.0,1.0,-11.0,201496.0
79670.10205078125,1759.0,-6.0,-20.0,201487.0
79688.78491210938,1760.0,-10.0,-25.0,201482.0
79707.4677734375,1761.0,-12.0,-27.0,201480.0
79726.15063476562,1762.0,-11.0,-26.0,201481.0
79744.83349609375,1763.0,-8.0,-22.0,201485.0
79763.51635742188,1764.0,-4.0,-16.0,201491.0
79782.19921875,1765.0,1.0,-10.0,201497.0
79800.8818359375,1766.0,5.0,-6.0,201501.0
79819.56469726562,1767.0,8.0,-2.0,201505.0
79838.24755859375,1768.0,7.0,-1.0,201506.0
79856.93041992188,1769.0,4.0,-2.0,201505.0
79875.61328125,1770.0,-1.0,-4.0,201503.0
79894.29614257812,1771.0,-6.0,-5.0,201502.0
79912.97900390625,1772.0,-10.0,-5.0,201502.0
79931.66186523438,1773.0,-12.0,-3.0,201504.0
79950.34448242188,1774.0,-14.0,-2.0,201505.0
79969.02734375,1775.0,-14.0,-1.0,201506.0
79987.71020507812,1776.0,-14.0,0.0,201507.0
80006.39306640625,1777.0,-13.0,-1.0,201506.0
80025.07592773438,1778.0,-14.0,-4.0,201503.0
80043.7587890625,1779.0,-15.0,-7.0,201500.0
80062.44165039062,1780.0,-15.0,-9.0,201498.0
80081.12451171875,1781.0,-12.0,-7.0,201500.0
80099.80737304688,1782.0,-5.0,-4.0,201503.0
80118.48999023438,1783.0,3.0,0.0,201507.0
80137.1728515625,1784.0,10.0,3.0,201510.0
80155.85571289062,1785.0,15.0,6.0,201513.0
80174.53857421875,1786.0,19.0,9.0,201516.0
80193.22143554688,1787.0,21.0,11.0,201518.0
80211.904296875,1788.0,22.0,10.0,201517.0
80230.58715820312,1789.0,18.0,6.0,201513.0
80249.27001953125,1790.0,13.0,-3.0,201504.0
80267.95263671875,1791.0,6.0,-13.0,201494.0
80286.63549804688,1792.0,-2.0,-22.0,201485.0
80305.318359375,1793.0,-9.0,-27.0,201480.0
80324.00122070312,1794.0,-15.0,-31.0,201476.0
80342.68408203125,1795.0,-18.0,-31.0,201476.0
80361.36694335938,1796.0,-18.0,-27.0,201480.0
80380.0498046875,1797.0,-15.0,-23.0,201484.0
80398.73266601562,1798.0,-12.0,-17.0,201490.0
80417.41552734375,1799.0,-9.0,-11.0,201496.0
80436.09814453125,1800.0,-5.0,-7.0,201500.0
80454.78100585938,1801.0,-3.0,-4.0,201503.0
80473.4638671875,1802.0,0.0,-2.0,201505.0
80492.14672851562,1803.0,2.0,0.0,201507.0
80510.82958984375,1804.0,5.0,1.0,201508.0
80529.51245117188,1805.0,7.0,3.0,201510.0
80548.1953125,1806.0,9.0,4.0,201511.0
80566.87817382812,1807.0,9.0,5.0,201512.0
80585.56079101562,1808.0,6.0,3.0,201510.0
80604.24365234375,1809.0,1.0,0.0,201507.0
80622.92651367188,1810.0,-5.0,-3.0,201504.0
80641.609375,1811.0,-9.0,-5.0,201502.0
80660.29223632812,1812.0,-10.0,-6.0,201501.0
80678.97509765625,1813.0,-10.0,-5.0,201502.0
80697.65795898438,1814.0,-9.0,-3.0,201504.0
80716.3408203125,1815.0,-9.0,-1.0,201506.0
80735.02368164062,1816.0,-8.0,0.0,201507.0
80753.70629882812,1817.0,-5.0,2.0,201509.0
80772.38916015625,1818.0,0.0,3.0,201510.0
80791.07202148438,1819.0,4.0,5.0,201512.0
80809.7548828125,1820.0,7.0,7.0,201514.0
80828.43774414062,1821.0,7.0,8.0,201515.0
80847.12060546875,1822.0,5.0,4.0,201511.0
80865.80346679688,1823.0,0.0,-3.0,201504.0
80884.486328125,1824.0,-7.0,-12.0,201495.0
80903.1689453125,1825.0,-15.0,-21.0,201486.0
80921.85180664062,1826.0,-20.0,-27.0,201480.0
80940.53466796875,1827.0,-24.0,-31.0,201476.0
80959.21752929688,1828.0,-26.0,-30.0,201477.0
80977.900390625,1829.0,-24.0,-28.0,201479.0
80996.58325195312,1830.0,-19.0,-20.0,201487.0
81015.26611328125,1831.0,-13.0,-12.0,201495.0
81033.94897460938,1832.0,-4.0,-2.0,201505.0
81052.63159179688,1833.0,6.0,8.0,201515.0
81071.314453125,1834.0,15.0,18.0,201525.0
81089.99731445312,1835.0,21.0,25.0,201532.0
81108.68017578125,1836.0,26.0,28.0,201535.0
81127.36303710938,1837.0,27.0,31.0,201538.0
81146.0458984375,1838.0,27.0,31.0,201538.0
81164.72875976562,1839.0,24.0,29.0,201536.0
81183.41162109375,1840.0,18.0,26.0,201533.0
81202.09448242188,1841.0,12.0,21.0,201528.0
81220.77709960938,1842.0,6.0,15.0,201522.0
81239.4599609375,1843.0,1.0,11.0,201518.0
81258.14282226562,1844.0,-2.0,8.0,201515.0
81276.82568359375,1845.0,-3.0,6.0,201513.0
81295.50854492188,1846.0,-2.0,5.0,201512.0
81314.19140625,1847.0,1.0,6.0,201513.0
81332.87426757812,1848.0,3.0,9.0,201516.0
81351.55712890625,1849.0,6.0,12.0,201519.0
81370.23974609375,1850.0,9.0,15.0,201522.0
81388.92260742188,1851.0,12.0,17.0,201524.0
81407.60546875,1852.0,14.0,19.0,201526.0
81426.28833007812,1853.0,16.0,21.0,201528.0
81444.97119140625,1854.0,18.0,22.0,201529.0
81463.65405273438,1855.0,19.0,23.0,201530.0
81482.3369140625,1856.0,18.0,19.0,201526.0
81501.01977539062,1857.0,13.0,12.0,201519.0
81519.70263671875,1858.0,5.0,4.0,201511.0
81538.38525390625,1859.0,-3.0,-5.0,201502.0
81557.06811523438,1860.0,-11.0,-13.0,201494.0
81575.7509765625,1861.0,-17.0,-18.0,201489.0
81594.43383789062,1862.0,-20.0,-19.0,201488.0
81613.11669921875,1863.0,-20.0,-17.0,201490.0
81631.79956054688,1864.0,-17.0,-15.0,201492.0
81650.482421875,1865.0,-13.0,-11.0,201496.0
81669.16528320312,1866.0,-10.0,-8.0,201499.0
81687.84790039062,1867.0,-6.0,-5.0,201502.0
81706.53076171875,1868.0,-2.0,-2.0,201505.0
81725.21362304688,1869.0,1.0,1.0,201508.0
81743.896484375,1870.0,4.0,3.0,201510.0
81762.57934570312,1871.0,8.0,4.0,201511.0
81781.26220703125,1872.0,12.0,5.0,201512.0
81799.94506835938,1873.0,16.0,7.0,201514.0
81818.6279296875,1874.0,19.0,8.0,201515.0
81837.31079101562,1875.0,20.0,8.0,201515.0
81855.99340820312,1876.0,21.0,6.0,201513.0
81874.67626953125,1877.0,19.0,5.0,201512.0
81893.35913085938,1878.0,17.0,4.0,201511.0
81912.0419921875,1879.0,15.0,4.0,201511.0
81930.72485351562,1880.0,14.0,5.0,201512.0
81949.40771484375,1881.0,13.0,7.0,201514.0
81968.09057617188,1882.0,11.0,10.0,201517.0
81986.7734375,1883.0,9.0,11.0,201518.0
82005.4560546875,1884.0,7.0,12.0,201519.0
82024.13891601562,1885.0,6.0,14.0,201521.0
82042.82177734375,1886.0,6.0,16.0,201523.0
82061.50463867188,1887.0,7.0,18.0,201525.0
82080.1875,1888.0,10.0,21.0,201528.0
82098.87036132812,1889.0,11.0,21.0,201528.0
82117.55322265625,1890.0,14.0,20.0,201527.0
82136.23608398438,1891.0,15.0,15.0,201522.0
82154.91870117188,1892.0,12.0,6.0,201513.0
82173.6015625,1893.0,6.0,-6.0,201501.0
82192.28442382812,1894.0,-1.0,-17.0,201490.0
82210.96728515625,1895.0,-6.0,-25.0,201482.0
82229.65014648438,1896.0,-9.0,-31.0,201476.0
82248.3330078125,1897.0,-11.0,-34.0,201473.0
82267.01586914062,1898.0,-10.0,-35.0,201472.0
82285.69873046875,1899.0,-6.0,-33.0,201474.0
82304.38159179688,1900.0,-2.0,-28.0,201479.0
82323.06420898438,1901.0,1.0,-23.0,201484.0
82341.7470703125,1902.0,2.0,-18.0,201489.0
82360.42993164062,1903.0,3.0,-12.0,201495.0
82379.11279296875,1904.0,3.0,-8.0,201499.0
82397.79565429688,1905.0,3.0,-5.0,201502.0
82416.478515625,1906.0,3.0,-1.0,201506.0
82435.16137695312,1907.0,3.0,1.0,201508.0
82453.84423828125,1908.0,3.0,3.0,201510.0
82472.52685546875,1909.0,3.0,2.0,201509.0
82491.20971679688,1910.0,2.0,0.0,201507.0
82509.892578125,1911.0,-1.0,-3.0,201504.0
82528.57543945312,1912.0,-4.0,-7.0,201500.0
82547.25830078125,1913.0,-6.0,-9.0,201498.0
82565.94116210938,1914.0,-7.0,-12.0,201495.0
82584.6240234375,1915.0,-6.0,-12.0,201495.0
82603.30688476562,1916.0,-4.0,-11.0,201496.0
82621.98974609375,1917.0,-1.0,-9.0,201498.0
82640.67236328125,1918.0,2.0,-6.0,201501.0
82659.35522460938,1919.0,4.0,-4.0,201503.0
82678.0380859375,1920.0,5.0,-1.0,201506.0
82696.72094726562,1921.0,7.0,2.0,201509.0
82715.40380859375,1922.0,8.0,6.0,201513.0
82734.08666992188,1923.0,10.0,8.0,201515.0
82752.76953125,1924.0,10.0,7.0,201514.0
82771.45239257812,1925.0,5.0,3.0,201510.0
82790.13500976562,1926.0,-3.0,-4.0,201503.0
82808.81787109375,1927.0,-12.0,-13.0,201494.0
82827.50073242188,1928.0,-19.0,-20.0,201487.0
82846.18359375,1929.0,-23.0,-25.0,201482.0
82864.86645507812,1930.0,-25.0,-27.0,201480.0
82883.54931640625,1931.0,-25.0,-25.0,201482.0
82902.23217773438,1932.0,-22.0,-22.0,201485.0
82920.9150390625,1933.0,-18.0,-19.0,201488.0
82939.59790039062,1934.0,-15.0,-15.0,201492.0
82958.28051757812,1935.0,-12.0,-13.0,201494.0
82976.96337890625,1936.0,-10.0,-11.0,201496.0
82995.64624023438,1937.0,-7.0,-10.0,201497.0
83014.3291015625,1938.0,-4.0,-9.0,201498.0
83033.01196289062,1939.0,-4.0,-7.0,201500.0
83051.69482421875,1940.0,-5.0,-3.0,201504.0
83070.37768554688,1941.0,-5.0,0.0,201507.0
83089.060546875,1942.0,-7.0,1.0,201508.0
83107.7431640625,1943.0,-8.0,1.0,201508.0
83126.42602539062,1944.0,-9.0,-1.0,201506.0
83145.10888671875,1945.0,-12.0,-3.0,201504.0
83163.79174804688,1946.0,-14.0,-3.0,201504.0
83182.474609375,1947.0,-16.0,-4.0,201503.0
83201.15747070312,1948.0,-16.0,-5.0,201502.0
83219.84033203125,1949.0,-15.0,-5.0,201502.0
83238.52319335938,1950.0,-11.0,-5.0,201502.0
83257.20581054688,1951.0,-8.0,-5.0,201502.0
83275.888671875,1952.0,-4.0,-4.0,201503.0
83294.57153320312,1953.0,2.0,-1.0,201506.0
83313.25439453125,1954.0,8.0,3.0,201510.0
83331.93725585938,1955.0,13.0,7.0,201514.0
83350.6201171875,1956.0,15.0,9.0,201516.0
83369.30297851562,1957.0,11.0,8.0,201515.0
83387.98583984375,1958.0,4.0,2.0,201509.0
83406.66870117188,1959.0,-6.0,-7.0,201500.0
83425.35131835938,1960.0,-16.0,-16.0,201491.0
83444.0341796875,1961.0,-22.0,-24.0,201483.0
83462.71704101562,1962.0,-26.0,-28.0,201479.0
83481.39990234375,1963.0,-27.0,-30.0,201477.0
83500.08276367188,1964.0,-24.0,-28.0,201479.0
83518.765625,1965.0,-19.0,-24.0,201483.0
83537.44848632812,1966.0,-13.0,-19.0,201488.0
83556.13134765625,1967.0,-8.0,-12.0,201495.0
83574.81396484375,1968.0,-3.0,-7.0,201500.0
83593.49682617188,1969.0,0.0,-3.0,201504.0
83612.1796875,1970.0,3.0,1.0,201508.0
83630.86254882812,1971.0,6.0,4.0,201511.0
83649.54541015625,1972.0,9.0,6.0,201513.0
83668.22827148438,1973.0,13.0,9.0,201516.0
83686.9111328125,1974.0,14.0,10.0,201517.0
83705.59399414062,1975.0,13.0,9.0,201516.0
83724.27685546875,1976.0,11.0,6.0,201513.0
83742.95947265625,1977.0,7.0,2.0,201509.0
83761.64233398438,1978.0,3.0,0.0,201507.0
83780.3251953125,1979.0,0.0,-2.0,201505.0
83799.00805664062,1980.0,-2.0,-2.0,201505.0
83817.69091796875,1981.0,-3.0,-1.0,201506.0
83836.37377929688,1982.0,-3.0,1.0,201508.0
83855.056640625,1983.0,-2.0,2.0,201509.0
83873.73950195312,1984.0,0.0,5.0,201512.0
83892.42211914062,1985.0,4.0,7.0,201514.0
83911.10498046875,1986.0,7.0,10.0,201517.0
83929.78784179688,1987.0,11.0,12.0,201519.0
83948.470703125,1988.0,14.0,13.0,201520.0
83967.15356445312,1989.0,14.0,12.0,201519.0
83985.83642578125,1990.0,11.0,6.0,201513.0
84004.51928710938,1991.0,4.0,-4.0,201503.0
84023.2021484375,1992.0,-4.0,-13.0,201494.0
84041.88500976562,1993.0,-10.0,-21.0,201486.0
84060.56762695312,1994.0,-14.0,-25.0,201482.0
84079.25048828125,1995.0,-15.0,-27.0,201480.0
84097.93334960938,1996.0,-14.0,-25.0,201482.0
84116.6162109375,1997.0,-12.0,-23.0,201484.0
84135.29907226562,1998.0,-7.0,-19.0,201488.0
84153.98193359375,1999.0,-2.0,-13.0,201494.0
84172.66479492188,2000.0,4.0,-9.0,201498.0
84191.34765625,2001.0,9.0,-5.0,201502.0
84210.0302734375,2002.0,14.0,1.0,201508.0
84228.71313476562,2003.0,16.0,6.0,201513.0
84247.39599609375,2004.0,20.0,11.0,201518.0
84266.07885742188,2005.0,21.0,14.0,201521.0
84284.76171875,2006.0,22.0,15.0,201522.0
84303.44458007812,2007.0,20.0,13.0,201520.0
84322.12744140625,2008.0,16.0,11.0,201518.0
84340.81030273438,2009.0,11.0,8.0,201515.0
84359.49291992188,2010.0,7.0,6.0,201513.0
84378.17578125,2011.0,5.0,4.0,201511.0
84396.85864257812,2012.0,3.0,3.0,201510.0
84415.54150390625,2013.0,1.0,3.0,201510.0
84434.22436523438,2014.0,1.0,3.0,201510.0
84452.9072265625,2015.0,2.0,4.0,201511.0
84471.59008789062,2016.0,5.0,5.0,201512.0
84490.27294921875,2017.0,9.0,7.0,201514.0
84508.95581054688,2018.0,14.0,9.0,201516.0
84527.63842773438,2019.0,18.0,13.0,201520.0
84546.3212890625,2020.0,22.0,15.0,201522.0
84565.00415039062,2021.0,23.0,18.0,201525.0
84583.68701171875,2022.0,21.0,18.0,201525.0
84602.36987304688,2023.0,15.0,15.0,201522.0
84621.052734375,2024.0,6.0,7.0,201514.0
84639.73559570312,2025.0,-3.0,-3.0,201504.0
84658.41845703125,2026.0,-11.0,-13.0,201494.0
84677.10107421875,2027.0,-16.0,-21.0,201486.0
84695.78393554688,2028.0,-17.0,-26.0,201481.0
84714.466796875,2029.0,-16.0,-27.0,201480.0
84733.14965820312,2030.0,-14.0,-25.0,201482.0
84751.83251953125,2031.0,-11.0,-22.0,201485.0
84770.51538085938,2032.0,-8.0,-18.0,201489.0
84789.1982421875,2033.0,-4.0,-12.0,201495.0
84807.88110351562,2034.0,0.0,-6.0,201501.0
84826.56396484375,2035.0,3.0,-1.0,201506.0
84845.24658203125,2036.0,6.0,2.0,201509.0
84863.92944335938,2037.0,7.0,4.0,201511.0
84882.6123046875,2038.0,8.0,5.0,201512.0
84901.29516601562,2039.0,9.0,7.0,201514.0
84919.97802734375,2040.0,10.0,8.0,201515.0
84938.66088867188,2041.0,9.0,7.0,201514.0
84957.34375,2042.0,8.0,4.0,201511.0
84976.02661132812,2043.0,6.0,1.0,201508.0
84994.70922851562,2044.0,4.0,-3.0,201504.0
85013.39208984375,2045.0,2.0,-6.0,201501.0
85032.07495117188,2046.0,0.0,-7.0,201500.0
85050.7578125,2047.0,-1.0,-7.0,201500.0
85069.44067382812,2048.0,0.0,-6.0,201501.0
85088.12353515625,2049.0,2.0,-4.0,201503.0
85106.80639648438,2050.0,5.0,-3.0,201504.0
85125.4892578125,2051.0,9.0,-1.0,201506.0
85144.171875,2052.0,12.0,1.0,201508.0
85162.85473632812,2053.0,14.0,3.0,201510.0
85181.53759765625,2054.0,17.0,5.0,201512.0
85200.22045898438,2055.0,20.0,6.0,201513.0
85218.9033203125,2056.0,20.0,7.0,201514.0
85237.58618164062,2057.0,16.0,6.0,201513.0
85256.26904296875,2058.0,6.0,1.0,201508.0
85274.95190429688,2059.0,-6.0,-8.0,201499.0
85293.634765625,2060.0,-20.0,-18.0,201489.0
85312.3173828125,2061.0,-30.0,-27.0,201480.0
85331.00024414062,2062.0,-39.0,-34.0,201473.0
85349.68310546875,2063.0,-42.0,-36.0,201471.0
85368.36596679688,2064.0,-44.0,-36.0,201471.0
85387.048828125,2065.0,-41.0,-34.0,201473.0
85405.73168945312,2066.0,-36.0,-29.0,201478.0
85424.41455078125,2067.0,-29.0,-25.0,201482.0
85443.09741210938,2068.0,-20.0,-21.0,201486.0
85461.78002929688,2069.0,-14.0,-16.0,201491.0
85480.462890625,2070.0,-10.0,-12.0,201495.0
85499.14575195312,2071.0,-7.0,-8.0,201499.0
85517.82861328125,2072.0,-6.0,-5.0,201502.0
85536.51147460938,2073.0,-6.0,-3.0,201504.0
85555.1943359375,2074.0,-5.0,-2.0,201505.0
85573.87719726562,2075.0,-4.0,-1.0,201506.0
85592.56005859375,2076.0,-3.0,-2.0,201505.0
85611.24291992188,2077.0,-4.0,-4.0,201503.0
85629.92553710938,2078.0,-8.0,-6.0,201501.0
85648.6083984375,2079.0,-13.0,-9.0,201498.0
85667.29125976562,2080.0,-17.0,-9.0,201498.0
85685.97412109375,2081.0,-18.0,-9.0,201498.0
85704.65698242188,2082.0,-17.0,-7.0,201500.0
85723.33984375,2083.0,-13.0,-6.0,201501.0
85742.02270507812,2084.0,-9.0,-4.0,201503.0
85760.70556640625,2085.0,-6.0,-2.0,201505.0
85779.38818359375,2086.0,-3.0,1.0,201508.0
85798.07104492188,2087.0,-1.0,4.0,201511.0
85816.75390625,2088.0,-1.0,8.0,201515.0
85835.43676757812,2089.0,-1.0,10.0,201517.0
85854.11962890625,2090.0,-4.0,10.0,201517.0
85872.80249023438,2091.0,-10.0,5.0,201512.0
85891.4853515625,2092.0,-19.0,-3.0,201504.0
85910.16821289062,2093.0,-28.0,-12.0,201495.0
85928.85107421875,2094.0,-36.0,-21.0,201486.0
85947.53369140625,2095.0,-41.0,-27.0,201480.0
85966.21655273438,2096.0,-42.0,-29.0,201478.0
85984.8994140625,2097.0,-40.0,-27.0,201480.0
86003.58227539062,2098.0,-34.0,-23.0,201484.0
86022.26513671875,2099.0,-28.0,-18.0,201489.0
86040.94799804688,2100.0,-19.0,-12.0,201495.0
86059.630859375,2101.0,-10.0,-7.0,201500.0
86078.31372070312,2102.0,-4.0,-2.0,201505.0
86096.99633789062,2103.0,-1.0,1.0,201508.0
86115.67919921875,2104.0,0.0,2.0,201509.0
86134.36206054688,2105.0,0.0,1.0,201508.0
86153.044921875,2106.0,-1.0,-1.0,201506.0
86171.72778320312,2107.0,-1.0,-2.0,201505.0
86190.41064453125,2108.0,-1.0,-2.0,201505.0
86209.09350585938,2109.0,-3.0,-1.0,201506.0
86227.7763671875,2110.0,-5.0,-2.0,201505.0
86246.458984375,2111.0,-5.0,-3.0,201504.0
86265.14184570312,2112.0,-5.0,-4.0,201503.0
86283.82470703125,2113.0,-4.0,-4.0,201503.0
86302.50756835938,2114.0,-4.0,-4.0,201503.0
86321.1904296875,2115.0,-2.0,-3.0,201504.0
86339.87329101562,2116.0,0.0,-1.0,201506.0
86358.55615234375,2117.0,3.0,1.0,201508.0
86377.23901367188,2118.0,6.0,3.0,201510.0
86395.921875,2119.0,8.0,5.0,201512.0
86414.6044921875,2120.0,9.0,8.0,201515.0
86433.28735351562,2121.0,10.0,10.0,201517.0
86451.97021484375,2122.0,10.0,10.0,201517.0
86470.65307617188,2123.0,9.0,9.0,201516.0
86489.3359375,2124.0,4.0,5.0,201512.0
86508.01879882812,2125.0,-4.0,-2.0,201505.0
86526.70166015625,2126.0,-13.0,-10.0,201497.0
86545.38452148438,2127.0,-21.0,-19.0,201488.0
86564.06713867188,2128.0,-25.0,-25.0,201482.0
86582.75,2129.0,-25.0,-28.0,201479.0
86601.43286132812,2130.0,-19.0,-25.0,201482.0
86620.11572265625,2131.0,-13.0,-20.0,201487.0
86638.79858398438,2132.0,-7.0,-14.0,201493.0
86657.4814453125,2133.0,-3.0,-8.0,201499.0
86676.16430664062,2134.0,-1.0,-2.0,201505.0
86694.84716796875,2135.0,2.0,3.0,201510.0
86713.53002929688,2136.0,6.0,8.0,201515.0
86732.21264648438,2137.0,11.0,13.0,201520.0
86750.8955078125,2138.0,16.0,17.0,201524.0
86769.57836914062,2139.0,21.0,20.0,201527.0
86788.26123046875,2140.0,25.0,22.0,201529.0
86806.94409179688,2141.0,27.0,22.0,201529.0
86825.626953125,2142.0,29.0,20.0,201527.0
86844.30981445312,2143.0,30.0,19.0,201526.0
86862.99267578125,2144.0,29.0,17.0,201524.0
86881.67529296875,2145.0,27.0,15.0,201522.0
86900.35815429688,2146.0,25.0,13.0,201520.0
86919.041015625,2147.0,22.0,12.0,201519.0
86937.72387695312,2148.0,21.0,12.0,201519.0
86956.40673828125,2149.0,22.0,12.0,201519.0
86975.08959960938,2150.0,24.0,13.0,201520.0
86993.7724609375,2151.0,27.0,15.0,201522.0
87012.45532226562,2152.0,30.0,19.0,201526.0
87031.13818359375,2153.0,34.0,21.0,201528.0
87049.82080078125,2154.0,37.0,24.0,201531.0
87068.50366210938,2155.0,37.0,25.0,201532.0
87087.1865234375,2156.0,33.0,25.0,201532.0
87105.86938476562,2157.0,27.0,23.0,201530.0
87124.55224609375,2158.0,17.0,18.0,201525.0
87143.23510742188,2159.0,7.0,10.0,201517.0
87161.91796875,2160.0,-5.0,-1.0,201506.0
87180.60083007812,2161.0,-14.0,-11.0,201496.0
87199.28344726562,2162.0,-22.0,-18.0,201489.0
87217.96630859375,2163.0,-26.0,-22.0,201485.0
87236.64916992188,2164.0,-24.0,-23.0,201484.0
87255.33203125,2165.0,-17.0,-18.0,201489.0
87274.01489257812,2166.0,-8.0,-11.0,201496.0
87292.69775390625,2167.0,2.0,-3.0,201504.0
87311.38061523438,2168.0,10.0,5.0,201512.0
87330.0634765625,2169.0,17.0,11.0,201518.0
87348.74609375,2170.0,21.0,15.0,201522.0
87367.42895507812,2171.0,24.0,18.0,201525.0
87386.11181640625,2172.0,26.0,18.0,201525.0
87404.79467773438,2173.0,28.0,18.0,201525.0
87423.4775390625,2174.0,29.0,18.0,201525.0
87442.16040039062,2175.0,31.0,20.0,201527.0
87460.84326171875,2176.0,32.0,22.0,201529.0
87479.52612304688,2177.0,31.0,22.0,201529.0
87498.208984375,2178.0,29.0,21.0,201528.0
87516.8916015625,2179.0,26.0,19.0,201526.0
87535.57446289062,2180.0,25.0,18.0,201525.0
87554.25732421875,2181.0,27.0,16.0,201523.0
87572.94018554688,2182.0,30.0,17.0,201524.0
87591.623046875,2183.0,33.0,19.0,201526.0
87610.30590820312,2184.0,37.0,21.0,201528.0
87628.98876953125,2185.0,41.0,22.0,201529.0
87647.67163085938,2186.0,43.0,23.0,201530.0
87666.35424804688,2187.0,45.0,26.0,201533.0
87685.037109375,2188.0,46.0,29.0,201536.0
87703.71997070312,2189.0,47.0,30.0,201537.0
87722.40283203125,2190.0,48.0,33.0,201540.0
87741.08569335938,2191.0,49.0,37.0,201544.0
87759.7685546875,2192.0,51.0,39.0,201546.0
87778.45141601562,2193.0,50.0,39.0,201546.0
87797.13427734375,2194.0,46.0,34.0,201541.0
87815.81713867188,2195.0,39.0,26.0,201533.0
87834.49975585938,2196.0,31.0,16.0,201523.0
87853.1826171875,2197.0,24.0,6.0,201513.0
87871.86547851562,2198.0,18.0,-4.0,201503.0
87890.54833984375,2199.0,13.0,-8.0,201499.0
87909.23120117188,2200.0,10.0,-9.0,201498.0
87927.9140625,2201.0,9.0,-6.0,201501.0
87946.59692382812,2202.0,10.0,-3.0,201504.0
87965.27978515625,2203.0,11.0,1.0,201508.0
87983.96240234375,2204.0,14.0,5.0,201512.0
88002.64526367188,2205.0,18.0,9.0,201516.0
88021.328125,2206.0,22.0,12.0,201519.0
88040.01098632812,2207.0,24.0,15.0,201522.0
88058.69384765625,2208.0,26.0,15.0,201522.0
88077.37670898438,2209.0,28.0,17.0,201524.0
88096.0595703125,2210.0,31.0,18.0,201525.0
88114.74243164062,2211.0,32.0,21.0,201528.0
88133.42529296875,2212.0,34.0,23.0,201530.0
88152.10791015625,2213.0,36.0,24.0,201531.0
88170.79077148438,2214.0,37.0,24.0,201531.0
88189.4736328125,2215.0,37.0,24.0,201531.0
88208.15649414062,2216.0,36.0,23.0,201530.0
88226.83935546875,2217.0,34.0,23.0,201530.0
88245.52221679688,2218.0,33.0,22.0,201529.0
88264.205078125,2219.0,33.0,22.0,201529.0
88282.88793945312,2220.0,34.0,21.0,201528.0
88301.57055664062,2221.0,36.0,22.0,201529.0
88320.25341796875,2222.0,38.0,24.0,201531.0
88338.93627929688,2223.0,38.0,24.0,201531.0
88357.619140625,2224.0,36.0,24.0,201531.0
88376.30200195312,2225.0,36.0,25.0,201532.0
88394.98486328125,2226.0,36.0,26.0,201533.0
88413.66772460938,2227.0,37.0,28.0,201535.0
88432.3505859375,2228.0,37.0,28.0,201535.0
88451.033203125,2229.0,38.0,28.0,201535.0
88469.71606445312,2230.0,37.0,28.0,201535.0
88488.39892578125,2231.0,33.0,23.0,201530.0
88507.08178710938,2232.0,26.0,15.0,201522.0
88525.7646484375,2233.0,17.0,4.0,201511.0
88544.44750976562,2234.0,8.0,-7.0,201500.0
88563.13037109375,2235.0,1.0,-15.0,201492.0
88581.81323242188,2236.0,-3.0,-19.0,201488.0
88600.49609375,2237.0,-5.0,-20.0,201487.0
88619.1787109375,2238.0,-3.0,-17.0,201490.0
88637.86157226562,2239.0,-1.0,-14.0,201493.0
88656.54443359375,2240.0,3.0,-8.0,201499.0
88675.22729492188,2241.0,8.0,-3.0,201504.0
88693.91015625,2242.0,13.0,2.0,201509.0
88712.59301757812,2243.0,17.0,5.0,201512.0
88731.27587890625,2244.0,19.0,6.0,201513.0
88749.95874023438,2245.0,19.0,7.0,201514.0
88768.64135742188,2246.0,16.0,7.0,201514.0
88787.32421875,2247.0,13.0,7.0,201514.0
88806.00708007812,2248.0,12.0,8.0,201515.0
88824.68994140625,2249.0,12.0,9.0,201516.0
88843.37280273438,2250.0,16.0,10.0,201517.0
88862.0556640625,2251.0,19.0,13.0,201520.0
88880.73852539062,2252.0,19.0,14.0,201521.0
88899.42138671875,2253.0,17.0,14.0,201521.0
88918.10424804688,2254.0,12.0,13.0,201520.0
88936.78686523438,2255.0,5.0,10.0,201517.0
88955.4697265625,2256.0,-1.0,7.0,201514.0
88974.15258789062,2257.0,-6.0,5.0,201512.0
88992.83544921875,2258.0,-6.0,6.0,201513.0
89011.51831054688,2259.0,-2.0,8.0,201515.0
89030.201171875,2260.0,5.0,12.0,201519.0
89048.88403320312,2261.0,13.0,16.0,201523.0
89067.56689453125,2262.0,19.0,19.0,201526.0
89086.24951171875,2263.0,24.0,22.0,201529.0
89104.93237304688,2264.0,27.0,24.0,201531.0
89123.615234375,2265.0,28.0,24.0,201531.0
89142.29809570312,2266.0,27.0,23.0,201530.0
89160.98095703125,2267.0,22.0,18.0,201525.0
89179.66381835938,2268.0,15.0,8.0,201515.0
89198.3466796875,2269.0,6.0,-4.0,201503.0
89217.02954101562,2270.0,-3.0,-12.0,201495.0
89235.71240234375,2271.0,-11.0,-19.0,201488.0
89254.39501953125,2272.0,-16.0,-22.0,201485.0
89273.07788085938,2273.0,-16.0,-22.0,201485.0
89291.7607421875,2274.0,-12.0,-19.0,201488.0
89310.44360351562,2275.0,-2.0,-14.0,201493.0
89329.12646484375,2276.0,8.0,-8.0,201499.0
89347.80932617188,2277.0,18.0,-2.0,201505.0
89366.4921875,2278.0,25.0,4.0,201511.0
89385.17504882812,2279.0,29.0,8.0,201515.0
89403.85766601562,2280.0,30.0,11.0,201518.0
89422.54052734375,2281.0,29.0,13.0,201520.0
89441.22338867188,2282.0,27.0,14.0,201521.0
89459.90625,2283.0,24.0,13.0,201520.0
89478.58911132812,2284.0,21.0,14.0,201521.0
89497.27197265625,2285.0,20.0,15.0,201522.0
89515.95483398438,2286.0,21.0,16.0,201523.0
89534.6376953125,2287.0,21.0,16.0,201523.0
89553.3203125,2288.0,21.0,16.0,201523.0
89572.00317382812,2289.0,18.0,13.0,201520.0
89590.68603515625,2290.0,14.0,12.0,201519.0
89609.36889648438,2291.0,9.0,10.0,201517.0
89628.0517578125,2292.0,6.0,8.0,201515.0
89646.73461914062,2293.0,5.0,8.0,201515.0
89665.41748046875,2294.0,6.0,9.0,201516.0
89684.10034179688,2295.0,9.0,11.0,201518.0
89702.783203125,2296.0,14.0,14.0,201521.0
89721.4658203125,2297.0,18.0,16.0,201523.0
89740.14868164062,2298.0,22.0,20.0,201527.0
89758.83154296875,2299.0,23.0,22.0,201529.0
89777.51440429688,2300.0,19.0,21.0,201528.0
89796.197265625,2301.0,10.0,14.0,201521.0
89814.88012695312,2302.0,-1.0,3.0,201510.0
89833.56298828125,2303.0,-12.0,-8.0,201499.0
89852.24584960938,2304.0,-21.0,-17.0,201490.0
89870.92846679688,2305.0,-24.0,-22.0,201485.0
89889.611328125,2306.0,-25.0,-24.0,201483.0
89908.29418945312,2307.0,-21.0,-22.0,201485.0
89926.97705078125,2308.0,-14.0,-17.0,201490.0
89945.65991210938,2309.0,-7.0,-11.0,201496.0
89964.3427734375,2310.0,0.0,-5.0,201502.0
89983.02563476562,2311.0,6.0,0.0,201507.0
90001.70849609375,2312.0,10.0,5.0,201512.0
90020.39135742188,2313.0,13.0,8.0,201515.0
90039.07397460938,2314.0,14.0,11.0,201518.0
90057.7568359375,2315.0,12.0,11.0,201518.0
90076.43969726562,2316.0,12.0,11.0,201518.0
90095.12255859375,2317.0,13.0,12.0,201519.0
90113.80541992188,2318.0,16.0,15.0,201522.0
90132.48828125,2319.0,19.0,17.0,201524.0
90151.17114257812,2320.0,19.0,17.0,201524.0
90169.85400390625,2321.0,15.0,15.0,201522.0
90188.53662109375,2322.0,10.0,11.0,201518.0
90207.21948242188,2323.0,6.0,9.0,201516.0
90225.90234375,2324.0,3.0,8.0,201515.0
90244.58520507812,2325.0,3.0,8.0,201515.0
90263.26806640625,2326.0,4.0,9.0,201516.0
90281.95092773438,2327.0,6.0,12.0,201519.0
90300.6337890625,2328.0,9.0,16.0,201523.0
90319.31665039062,2329.0,12.0,20.0,201527.0
90337.99951171875,2330.0,13.0,23.0,201530.0
90356.68212890625,2331.0,13.0,27.0,201534.0
90375.36499023438,2332.0,13.0,30.0,201537.0
90394.0478515625,2333.0,12.0,31.0,201538.0
90412.73071289062,2334.0,11.0,29.0,201536.0
90431.41357421875,2335.0,8.0,26.0,201533.0
90450.09643554688,2336.0,1.0,19.0,201526.0
90468.779296875,2337.0,-7.0,8.0,201515.0
90487.46215820312,2338.0,-16.0,-4.0,201503.0
90506.14477539062,2339.0,-25.0,-13.0,201494.0
90524.82763671875,2340.0,-31.0,-19.0,201488.0
90543.51049804688,2341.0,-34.0,-19.0,201488.0
90562.193359375,2342.0,-35.0,-17.0,201490.0
90580.87622070312,2343.0,-30.0,-12.0,201495.0
90599.55908203125,2344.0,-23.0,-6.0,201501.0
90618.24194335938,2345.0,-12.0,1.0,201508.0
90636.9248046875,2346.0,1.0,8.0,201515.0
90655.607421875,2347.0,12.0,13.0,201520.0
90674.29028320312,2348.0,20.0,18.0,201525.0
90692.97314453125,2349.0,25.0,22.0,201529.0
90711.65600585938,2350.0,27.0,24.0,201531.0
90730.3388671875,2351.0,27.0,25.0,201532.0
90749.02172851562,2352.0,27.0,26.0,201533.0
90767.70458984375,2353.0,27.0,28.0,201535.0
90786.38745117188,2354.0,27.0,29.0,201536.0
90805.0703125,2355.0,26.0,29.0,201536.0
90823.7529296875,2356.0,24.0,27.0,201534.0
90842.43579101562,2357.0,21.0,23.0,201530.0
90861.11865234375,2358.0,17.0,20.0,201527.0
90879.80151367188,2359.0,15.0,17.0,201524.0
90898.484375,2360.0,14.0,16.0,201523.0
90917.16723632812,2361.0,13.0,16.0,201523.0
90935.85009765625,2362.0,13.0,16.0,201523.0
90954.53295898438,2363.0,12.0,17.0,201524.0
90973.21557617188,2364.0,12.0,19.0,201526.0
90991.8984375,2365.0,12.0,21.0,201528.0
91010.58129882812,2366.0,13.0,23.0,201530.0
91029.26416015625,2367.0,14.0,24.0,201531.0
91047.94702148438,2368.0,15.0,25.0,201532.0
91066.6298828125,2369.0,17.0,27.0,201534.0
91085.31274414062,2370.0,19.0,28.0,201535.0
91103.99560546875,2371.0,22.0,30.0,201537.0
91122.67846679688,2372.0,23.0,29.0,201536.0
91141.36108398438,2373.0,19.0,22.0,201529.0
91160.0439453125,2374.0,11.0,13.0,201520.0
91178.72680664062,2375.0,3.0,3.0,201510.0
91197.40966796875,2376.0,-6.0,-6.0,201501.0
91216.09252929688,2377.0,-11.0,-13.0,201494.0
91234.775390625,2378.0,-14.0,-16.0,201491.0
91253.45825195312,2379.0,-13.0,-16.0,201491.0
91272.14111328125,2380.0,-12.0,-13.0,201494.0
91290.82373046875,2381.0,-11.0,-10.0,201497.0
91309.50659179688,2382.0,-10.0,-8.0,201499.0
91328.189453125,2383.0,-10.0,-7.0,201500.0
91346.87231445312,2384.0,-11.0,-6.0,201501.0
91365.55517578125,2385.0,-12.0,-5.0,201502.0
91384.23803710938,2386.0,-12.0,-5.0,201502.0
91402.9208984375,2387.0,-14.0,-5.0,201502.0
91421.60375976562,2388.0,-13.0,-4.0,201503.0
91440.28662109375,2389.0,-10.0,-2.0,201505.0
91458.96923828125,2390.0,-6.0,0.0,201507.0
91477.65209960938,2391.0,-1.0,2.0,201509.0
91496.3349609375,2392.0,2.0,3.0,201510.0
91515.01782226562,2393.0,2.0,4.0,201511.0
91533.70068359375,2394.0,0.0,2.0,201509.0
91552.38354492188,2395.0,-4.0,0.0,201507.0
91571.06640625,2396.0,-7.0,-3.0,201504.0
91589.74926757812,2397.0,-10.0,-5.0,201502.0
91608.43188476562,2398.0,-12.0,-5.0,201502.0
91627.11474609375,2399.0,-14.0,-5.0,201502.0
91645.79760742188,2400.0,-14.0,-4.0,201503.0
91664.48046875,2401.0,-14.0,0.0,201507.0
91683.16333007812,2402.0,-12.0,3.0,201510.0
91701.84619140625,2403.0,-10.0,6.0,201513.0
91720.52905273438,2404.0,-8.0,6.0,201513.0
91739.2119140625,2405.0,-4.0,8.0,201515.0
91757.89453125,2406.0,-2.0,10.0,201517.0
91776.57739257812,2407.0,-1.0,11.0,201518.0
91795.26025390625,2408.0,-3.0,10.0,201517.0
91813.94311523438,2409.0,-8.0,5.0,201512.0
91832.6259765625,2410.0,-14.0,-2.0,201505.0
91851.30883789062,2411.0,-20.0,-11.0,201496.0
91869.99169921875,2412.0,-27.0,-19.0,201488.0
91888.67456054688,2413.0,-31.0,-25.0,201482.0
91907.357421875,2414.0,-34.0,-28.0,201479.0
91926.0400390625,2415.0,-34.0,-29.0,201478.0
91944.72290039062,2416.0,-32.0,-26.0,201481.0
91963.40576171875,2417.0,-29.0,-21.0,201486.0
91982.08862304688,2418.0,-25.0,-16.0,201491.0
92000.771484375,2419.0,-19.0,-11.0,201496.0
92019.45434570312,2420.0,-14.0,-6.0,201501.0
92038.13720703125,2421.0,-7.0,-2.0,201505.0
92056.82006835938,2422.0,-2.0,1.0,201508.0
92075.50268554688,2423.0,3.0,2.0,201509.0
92094.185546875,2424.0,6.0,4.0,201511.0
92112.86840820312,2425.0,7.0,6.0,201513.0
92131.55126953125,2426.0,7.0,7.0,201514.0
92150.23413085938,2427.0,7.0,9.0,201516.0
92168.9169921875,2428.0,6.0,9.0,201516.0
92187.59985351562,2429.0,4.0,7.0,201514.0
92206.28271484375,2430.0,1.0,5.0,201512.0
92224.96557617188,2431.0,-3.0,2.0,201509.0
92243.64819335938,2432.0,-6.0,0.0,201507.0
92262.3310546875,2433.0,-7.0,-1.0,201506.0
92281.01391601562,2434.0,-9.0,0.0,201507.0
92299.69677734375,2435.0,-9.0,2.0,201509.0
92318.37963867188,2436.0,-8.0,4.0,201511.0
92337.0625,2437.0,-6.0,6.0,201513.0
92355.74536132812,2438.0,-5.0,9.0,201516.0
92374.42822265625,2439.0,-5.0,11.0,201518.0
92393.11083984375,2440.0,-4.0,12.0,201519.0
92411.79370117188,2441.0,-3.0,13.0,201520.0
92430.4765625,2442.0,-2.0,11.0,201518.0
92449.15942382812,2443.0,-4.0,5.0,201512.0
92467.84228515625,2444.0,-9.0,-4.0,201503.0
92486.52514648438,2445.0,-16.0,-13.0,201494.0
92505.2080078125,2446.0,-23.0,-20.0,201487.0
92523.89086914062,2447.0,-27.0,-24.0,201483.0
92542.57373046875,2448.0,-29.0,-24.0,201483.0
92561.25634765625,2449.0,-30.0,-24.0,201483.0
92579.93920898438,2450.0,-30.0,-21.0,201486.0
92598.6220703125,2451.0,-29.0,-18.0,201489.0
92617.30493164062,2452.0,-29.0,-12.0,201495.0
92635.98779296875,2453.0,-26.0,-8.0,201499.0
92654.67065429688,2454.0,-20.0,-3.0,201504.0
92673.353515625,2455.0,-15.0,1.0,201508.0
92692.03637695312,2456.0,-12.0,6.0,201513.0
92710.71899414062,2457.0,-8.0,9.0,201516.0
92729.40185546875,2458.0,-5.0,12.0,201519.0
92748.08471679688,2459.0,-2.0,13.0,201520.0
92766.767578125,2460.0,0.0,14.0,201521.0
92785.45043945312,2461.0,0.0,12.0,201519.0
92804.13330078125,2462.0,-2.0,10.0,201517.0
92822.81616210938,2463.0,-5.0,6.0,201513.0
92841.4990234375,2464.0,-6.0,3.0,201510.0
92860.181640625,2465.0,-5.0,0.0,201507.0
92878.86450195312,2466.0,-4.0,-2.0,201505.0
92897.54736328125,2467.0,-4.0,-3.0,201504.0
92916.23022460938,2468.0,-3.0,-2.0,201505.0
92934.9130859375,2469.0,-2.0,1.0,201508.0
92953.59594726562,2470.0,-1.0,3.0,201510.0
92972.27880859375,2471.0,0.0,6.0,201513.0
92990.96166992188,2472.0,1.0,8.0,201515.0
93009.64453125,2473.0,1.0,10.0,201517.0
93028.3271484375,2474.0,1.0,13.0,201520.0
93047.01000976562,2475.0,0.0,14.0,201521.0
93065.69287109375,2476.0,-2.0,13.0,201520.0
93084.37573242188,2477.0,-6.0,5.0,201512.0
93103.05859375,2478.0,-11.0,-4.0,201503.0
93121.74145507812,2479.0,-17.0,-15.0,201492.0
93140.42431640625,2480.0,-23.0,-23.0,201484.0
93159.10717773438,2481.0,-27.0,-31.0,201476.0
93177.78979492188,2482.0,-31.0,-35.0,201472.0
93196.47265625,2483.0,-31.0,-33.0,201474.0
93215.15551757812,2484.0,-28.0,-29.0,201478.0
93233.83837890625,2485.0,-24.0,-22.0,201485.0
93252.52124023438,2486.0,-18.0,-15.0,201492.0
93271.2041015625,2487.0,-12.0,-8.0,201499.0
93289.88696289062,2488.0,-5.0,-3.0,201504.0
93308.56982421875,2489.0,0.0,2.0,201509.0
93327.25268554688,2490.0,4.0,6.0,201513.0
93345.93530273438,2491.0,7.0,9.0,201516.0
93364.6181640625,2492.0,10.0,11.0,201518.0
93383.30102539062,2493.0,10.0,13.0,201520.0
93401.98388671875,2494.0,10.0,14.0,201521.0
93420.66674804688,2495.0,9.0,13.0,201520.0
93439.349609375,2496.0,6.0,10.0,201517.0
93458.03247070312,2497.0,2.0,6.0,201513.0
93476.71533203125,2498.0,-1.0,2.0,201509.0
93495.39794921875,2499.0,-3.0,1.0,201508.0
93514.08081054688,2500.0,-5.0,0.0,201507.0
93532.763671875,2501.0,-5.0,1.0,201508.0
93551.44653320312,2502.0,-4.0,3.0,201510.0
93570.12939453125,2503.0,-3.0,5.0,201512.0
93588.81225585938,2504.0,-3.0,7.0,201514.0
93607.4951171875,2505.0,-2.0,9.0,201516.0
93626.17797851562,2506.0,1.0,10.0,201517.0
93644.86083984375,2507.0,4.0,11.0,201518.0
93663.54345703125,2508.0,7.0,11.0,201518.0
93682.22631835938,2509.0,10.0,12.0,201519.0
93700.9091796875,2510.0,11.0,12.0,201519.0
93719.59204101562,2511.0,8.0,10.0,201517.0
93738.27490234375,2512.0,1.0,4.0,201511.0
93756.95776367188,2513.0,-10.0,-5.0,201502.0
93775.640625,2514.0,-22.0,-14.0,201493.0
93794.32348632812,2515.0,-30.0,-21.0,201486.0
93813.00610351562,2516.0,-35.0,-25.0,201482.0
93831.68896484375,2517.0,-36.0,-26.0,201481.0
93850.37182617188,2518.0,-32.0,-24.0,201483.0
93869.0546875,2519.0,-27.0,-20.0,201487.0
93887.73754882812,2520.0,-20.0,-14.0,201493.0
93906.42041015625,2521.0,-14.0,-10.0,201497.0
93925.10327148438,2522.0,-7.0,-5.0,201502.0
93943.7861328125,2523.0,-2.0,1.0,201508.0
93962.46875,2524.0,3.0,6.0,201513.0
93981.15161132812,2525.0,5.0,10.0,201517.0
93999.83447265625,2526.0,5.0,13.0,201520.0
94018.51733398438,2527.0,4.0,15.0,201522.0
94037.2001953125,2528.0,4.0,15.0,201522.0
94055.88305664062,2529.0,3.0,15.0,201522.0
94074.56591796875,2530.0,1.0,13.0,201520.0
94093.24877929688,2531.0,-3.0,9.0,201516.0
94111.931640625,2532.0,-7.0,5.0,201512.0
94130.6142578125,2533.0,-11.0,1.0,201508.0
94149.29711914062,2534.0,-14.0,-3.0,201504.0
94167.97998046875,2535.0,-18.0,-7.0,201500.0
94186.66284179688,2536.0,-19.0,-9.0,201498.0
94205.345703125,2537.0,-19.0,-9.0,201498.0
94224.02856445312,2538.0,-16.0,-8.0,201499.0
94242.71142578125,2539.0,-12.0,-5.0,201502.0
94261.39428710938,2540.0,-8.0,-1.0,201506.0
94280.07690429688,2541.0,-3.0,4.0,201511.0
94298.759765625,2542.0,2.0,8.0,201515.0
94317.44262695312,2543.0,3.0,11.0,201518.0
94336.12548828125,2544.0,2.0,12.0,201519.0
94354.80834960938,2545.0,-1.0,11.0,201518.0
94373.4912109375,2546.0,-4.0,8.0,201515.0
94392.17407226562,2547.0,-11.0,4.0,201511.0
94410.85693359375,2548.0,-21.0,-5.0,201502.0
94429.53979492188,2549.0,-32.0,-15.0,201492.0
94448.22241210938,2550.0,-40.0,-25.0,201482.0
94466.9052734375,2551.0,-46.0,-33.0,201474.0
94485.58813476562,2552.0,-47.0,-36.0,201471.0
94504.27099609375,2553.0,-47.0,-38.0,201469.0
94522.95385742188,2554.0,-42.0,-36.0,201471.0
94541.63671875,2555.0,-38.0,-33.0,201474.0
94560.31958007812,2556.0,-31.0,-28.0,201479.0
94579.00244140625,2557.0,-25.0,-21.0,201486.0
94597.68505859375,2558.0,-18.0,-16.0,201491.0
94616.36791992188,2559.0,-11.0,-10.0,201497.0
94635.05078125,2560.0,-5.0,-5.0,201502.0
94653.73364257812,2561.0,2.0,0.0,201507.0
94672.41650390625,2562.0,8.0,4.0,201511.0
94691.09936523438,2563.0,16.0,8.0,201515.0
94709.7822265625,2564.0,23.0,10.0,201517.0
94728.46508789062,2565.0,27.0,11.0,201518.0
94747.14794921875,2566.0,29.0,9.0,201516.0
94765.83056640625,2567.0,27.0,6.0,201513.0
94784.51342773438,2568.0,24.0,2.0,201509.0
94803.1962890625,2569.0,19.0,0.0,201507.0
94821.87915039062,2570.0,16.0,-2.0,201505.0
94840.56201171875,2571.0,12.0,-3.0,201504.0
94859.24487304688,2572.0,8.0,-4.0,201503.0
94877.927734375,2573.0,3.0,-5.0,201502.0
94896.61059570312,2574.0,0.0,-5.0,201502.0
94915.29321289062,2575.0,-3.0,-5.0,201502.0
94933.97607421875,2576.0,-5.0,-4.0,201503.0
94952.65893554688,2577.0,-6.0,-2.0,201505.0
94971.341796875,2578.0,-5.0,1.0,201508.0
94990.02465820312,2579.0,-4.0,4.0,201511.0
95008.70751953125,2580.0,-2.0,5.0,201512.0
95027.39038085938,2581.0,-1.0,5.0,201512.0
95046.0732421875,2582.0,-2.0,0.0,201507.0
95064.755859375,2583.0,-8.0,-8.0,201499.0
95083.43872070312,2584.0,-17.0,-19.0,201488.0
95102.12158203125,2585.0,-26.0,-28.0,201479.0
95120.80444335938,2586.0,-33.0,-35.0,201472.0
95139.4873046875,2587.0,-39.0,-40.0,201467.0
95158.17016601562,2588.0,-41.0,-41.0,201466.0
95176.85302734375,2589.0,-40.0,-40.0,201467.0
95195.53588867188,2590.0,-38.0,-36.0,201471.0
95214.21875,2591.0,-34.0,-33.0,201474.0
95232.9013671875,2592.0,-28.0,-29.0,201478.0
95251.58422851562,2593.0,-20.0,-22.0,201485.0
95270.26708984375,2594.0,-13.0,-17.0,201490.0
95288.94995117188,2595.0,-7.0,-11.0,201496.0
95307.6328125,2596.0,-1.0,-6.0,201501.0
95326.31567382812,2597.0,3.0,-3.0,201504.0
95344.99853515625,2598.0,7.0,0.0,201507.0
95363.68139648438,2599.0,9.0,1.0,201508.0
95382.36401367188,2600.0,8.0,-1.0,201506.0
95401.046875,2601.0,4.0,-5.0,201502.0
95419.72973632812,2602.0,-2.0,-9.0,201498.0
95438.41259765625,2603.0,-7.0,-12.0,201495.0
95457.09545898438,2604.0,-10.0,-15.0,201492.0
95475.7783203125,2605.0,-11.0,-16.0,201491.0
95494.46118164062,2606.0,-11.0,-16.0,201491.0
95513.14404296875,2607.0,-12.0,-17.0,201490.0
95531.82690429688,2608.0,-12.0,-16.0,201491.0
95550.50952148438,2609.0,-12.0,-15.0,201492.0
95569.1923828125,2610.0,-11.0,-13.0,201494.0
95587.87524414062,2611.0,-9.0,-10.0,201497.0
95606.55810546875,2612.0,-7.0,-7.0,201500.0
95625.24096679688,2613.0,-3.0,-5.0,201502.0
95643.923828125,2614.0,0.0,-3.0,201504.0
95662.60668945312,2615.0,-1.0,-5.0,201502.0
95681.28955078125,2616.0,-6.0,-10.0,201497.0
95699.97216796875,2617.0,-14.0,-18.0,201489.0
95718.65502929688,2618.0,-23.0,-26.0,201481.0
95737.337890625,2619.0,-28.0,-34.0,201473.0
95756.02075195312,2620.0,-33.0,-40.0,201467.0
95774.70361328125,2621.0,-35.0,-42.0,201465.0
95793.38647460938,2622.0,-35.0,-41.0,201466.0
95812.0693359375,2623.0,-35.0,-37.0,201470.0
95830.75219726562,2624.0,-33.0,-33.0,201474.0
