timestamp,sampleNum,BIOZI,BIOZQ,BIOZ
47827.342041015625,1.0,5543.0,1517.0,214168.0
47840.68408203125,2.0,27736.0,-7015.0,205636.0
47854.026123046875,3.0,81095.0,-35549.0,177102.0
47867.3681640625,4.0,156622.0,-79200.0,133451.0
47880.7099609375,5.0,232195.0,-124180.0,88471.0
47894.052001953125,6.0,293748.0,-161491.0,51160.0
47907.39404296875,7.0,336665.0,-187952.0,24699.0
47920.736083984375,8.0,361903.0,-203873.0,8778.0
47934.078125,9.0,373060.0,-211266.0,1385.0
47947.420166015625,10.0,374433.0,-212651.0,0.0
47960.76220703125,11.0,369919.0,-210356.0,2295.0
47974.104248046875,12.0,362521.0,-206206.0,6445.0
47987.4462890625,13.0,354269.0,-201456.0,11195.0
48000.7880859375,14.0,346343.0,-196842.0,15809.0
48014.130126953125,15.0,339288.0,-192721.0,19930.0
48027.47216796875,16.0,333235.0,-189188.0,23463.0
48040.814208984375,17.0,328082.0,-186191.0,26460.0
48054.15625,18.0,323626.0,-183617.0,29034.0
48067.498291015625,19.0,319650.0,-181339.0,31312.0
48080.84033203125,20.0,315969.0,-179245.0,33406.0
48094.182373046875,21.0,312447.0,-177248.0,35403.0
48107.5244140625,22.0,308995.0,-175292.0,37359.0
48120.8662109375,23.0,305560.0,-173350.0,39301.0
48134.208251953125,24.0,302120.0,-171406.0,41245.0
48147.55029296875,25.0,298673.0,-169457.0,43194.0
48160.892333984375,26.0,295225.0,-167507.0,45144.0
48174.234375,27.0,291786.0,-165561.0,47090.0
48187.576416015625,28.0,288369.0,-163625.0,49026.0
48200.91845703125,29.0,284981.0,-161702.0,50949.0
48214.260498046875,30.0,281633.0,-159797.0,52854.0
48227.6025390625,31.0,278324.0,-157913.0,54738.0
48240.9443359375,32.0,275058.0,-156054.0,56597.0
48254.286376953125,33.0,271830.0,-154218.0,58433.0
48267.62841796875,34.0,268641.0,-152406.0,60245.0
48280.970458984375,35.0,265490.0,-150618.0,62033.0
48294.3125,36.0,262379.0,-148849.0,63802.0
48307.654541015625,37.0,259305.0,-147102.0,65549.0
48320.99658203125,38.0,256270.0,-145376.0,67275.0
48334.338623046875,39.0,253272.0,-143673.0,68978.0
48347.6806640625,40.0,250310.0,-141990.0,70661.0
48361.0224609375,41.0,247383.0,-140325.0,72326.0
48374.364501953125,42.0,244488.0,-138678.0,73973.0
48387.70654296875,43.0,241625.0,-137048.0,75603.0
48401.048583984375,44.0,238795.0,-135439.0,77212.0
48414.390625,45.0,235997.0,-133850.0,78801.0
48427.732666015625,46.0,233230.0,-132280.0,80371.0
48441.07470703125,47.0,230495.0,-130729.0,81922.0
48454.416748046875,48.0,227794.0,-129196.0,83455.0
48467.7587890625,49.0,225123.0,-127684.0,84967.0
48481.1005859375,50.0,222480.0,-126195.0,86456.0
48494.442626953125,51.0,219863.0,-124729.0,87922.0
48507.78466796875,52.0,217272.0,-123284.0,89367.0
48521.126708984375,53.0,214710.0,-121854.0,90797.0
48534.46875,54.0,212181.0,-120439.0,92212.0
48547.810791015625,55.0,209684.0,-119036.0,93615.0
48561.15283203125,56.0,207218.0,-117646.0,95005.0
48574.494873046875,57.0,204786.0,-116269.0,96382.0
48587.8369140625,58.0,202386.0,-114904.0,97747.0
48601.1787109375,59.0,200017.0,-113553.0,99098.0
48614.520751953125,60.0,197679.0,-112217.0,100434.0
48627.86279296875,61.0,195370.0,-110895.0,101756.0
48641.204833984375,62.0,193088.0,-109590.0,103061.0
48654.546875,63.0,190831.0,-108301.0,104350.0
48667.888916015625,64.0,188601.0,-107028.0,105623.0
48681.23095703125,65.0,186394.0,-105770.0,106881.0
48694.572998046875,66.0,184214.0,-104527.0,108124.0
48707.9150390625,67.0,182058.0,-103301.0,109350.0
48721.2568359375,68.0,179927.0,-102090.0,110561.0
48734.598876953125,69.0,177821.0,-100893.0,111758.0
48747.94091796875,70.0,175740.0,-99709.0,112942.0
48761.282958984375,71.0,173685.0,-98541.0,114110.0
48774.625,72.0,171652.0,-97386.0,115265.0
48787.967041015625,73.0,169641.0,-96246.0,116405.0
48801.30908203125,74.0,167651.0,-95119.0,117532.0
48814.651123046875,75.0,165684.0,-94007.0,118644.0
48827.9931640625,76.0,163740.0,-92909.0,119742.0
48841.3349609375,77.0,161819.0,-91824.0,120827.0
48854.677001953125,78.0,159923.0,-90750.0,121901.0
48868.01904296875,79.0,158049.0,-89689.0,122962.0
48881.361083984375,80.0,156197.0,-88638.0,124013.0
48894.703125,81.0,154368.0,-87598.0,125053.0
48908.045166015625,82.0,152562.0,-86570.0,126081.0
48921.38720703125,83.0,150777.0,-85553.0,127098.0
48934.729248046875,84.0,149014.0,-84551.0,128100.0
48948.0712890625,85.0,147270.0,-83560.0,129091.0
48961.4130859375,86.0,145544.0,-82581.0,130070.0
48974.755126953125,87.0,143838.0,-81613.0,131038.0
48988.09716796875,88.0,142152.0,-80657.0,131994.0
49001.439208984375,89.0,140485.0,-79710.0,132941.0
49014.78125,90.0,138839.0,-78775.0,133876.0
49028.123291015625,91.0,137214.0,-77851.0,134800.0
49041.46533203125,92.0,135610.0,-76938.0,135713.0
49054.807373046875,93.0,134026.0,-76034.0,136617.0
49068.1494140625,94.0,132460.0,-75140.0,137511.0
49081.4912109375,95.0,130912.0,-74256.0,138395.0
49094.833251953125,96.0,129381.0,-73382.0,139269.0
49108.17529296875,97.0,127868.0,-72519.0,140132.0
49121.517333984375,98.0,126372.0,-71668.0,140983.0
49134.859375,99.0,124891.0,-70827.0,141824.0
49148.201416015625,100.0,123424.0,-69998.0,142653.0
49161.54345703125,101.0,121966.0,-69184.0,143467.0
49174.885498046875,102.0,120520.0,-68385.0,144266.0
49188.2275390625,103.0,119091.0,-67594.0,145057.0
49201.5693359375,104.0,117680.0,-66811.0,145840.0
49214.911376953125,105.0,116289.0,-66035.0,146616.0
49228.25341796875,106.0,114920.0,-65266.0,147385.0
49241.595458984375,107.0,113575.0,-64501.0,148150.0
49254.9375,108.0,112248.0,-63744.0,148907.0
49268.279541015625,109.0,110936.0,-62994.0,149657.0
49281.62158203125,110.0,109640.0,-62251.0,150400.0
49294.963623046875,111.0,108358.0,-61517.0,151134.0
49308.3056640625,112.0,107093.0,-60790.0,151861.0
49321.6474609375,113.0,105843.0,-60075.0,152576.0
49334.989501953125,114.0,104607.0,-59369.0,153282.0
49348.33154296875,115.0,103385.0,-58672.0,153979.0
49361.673583984375,116.0,102178.0,-57983.0,154668.0
49375.015625,117.0,100984.0,-57302.0,155349.0
49388.357666015625,118.0,99805.0,-56627.0,156024.0
49401.69970703125,119.0,98637.0,-55960.0,156691.0
49415.041748046875,120.0,97484.0,-55299.0,157352.0
49428.3837890625,121.0,96343.0,-54647.0,158004.0
49441.7255859375,122.0,95217.0,-54002.0,158649.0
49455.067626953125,123.0,94103.0,-53367.0,159284.0
49468.40966796875,124.0,93001.0,-52740.0,159911.0
49481.751708984375,125.0,91909.0,-52124.0,160527.0
49495.09375,126.0,90829.0,-51518.0,161133.0
49508.435791015625,127.0,89762.0,-50920.0,161731.0
49521.77783203125,128.0,88709.0,-50327.0,162324.0
49535.119873046875,129.0,87669.0,-49739.0,162912.0
49548.4619140625,130.0,86641.0,-49156.0,163495.0
49561.8037109375,131.0,85626.0,-48577.0,164074.0
49575.145751953125,132.0,84625.0,-48004.0,164647.0
49588.48779296875,133.0,83635.0,-47438.0,165213.0
49601.829833984375,134.0,82658.0,-46881.0,165770.0
49615.171875,135.0,81694.0,-46332.0,166319.0
49628.513916015625,136.0,80741.0,-45789.0,166862.0
49641.85595703125,137.0,79799.0,-45251.0,167400.0
49655.197998046875,138.0,78867.0,-44719.0,167932.0
49668.5400390625,139.0,77944.0,-44194.0,168457.0
49681.8818359375,140.0,77031.0,-43675.0,168976.0
49695.223876953125,141.0,76128.0,-43163.0,169488.0
49708.56591796875,142.0,75237.0,-42658.0,169993.0
49721.907958984375,143.0,74356.0,-42159.0,170492.0
49735.25,144.0,73485.0,-41666.0,170985.0
49748.592041015625,145.0,72625.0,-41178.0,171473.0
49761.93408203125,146.0,71775.0,-40697.0,171954.0
49775.276123046875,147.0,70935.0,-40220.0,172431.0
49788.6181640625,148.0,70106.0,-39747.0,172904.0
49801.9599609375,149.0,69284.0,-39284.0,173367.0
49815.302001953125,150.0,68466.0,-38828.0,173823.0
49828.64404296875,151.0,67651.0,-38383.0,174268.0
49841.986083984375,152.0,66840.0,-37944.0,174707.0
49855.328125,153.0,66039.0,-37509.0,175142.0
49868.670166015625,154.0,65249.0,-37077.0,175574.0
49882.01220703125,155.0,64473.0,-36649.0,176002.0
49895.354248046875,156.0,63712.0,-36221.0,176430.0
49908.6962890625,157.0,62964.0,-35797.0,176854.0
49922.0380859375,158.0,62229.0,-35374.0,177277.0
49935.380126953125,159.0,61506.0,-34955.0,177696.0
49948.72216796875,160.0,60791.0,-34540.0,178111.0
49962.064208984375,161.0,60086.0,-34128.0,178523.0
49975.40625,162.0,59386.0,-33722.0,178929.0
49988.748291015625,163.0,58694.0,-33321.0,179330.0
50002.09033203125,164.0,58010.0,-32927.0,179724.0
50015.432373046875,165.0,57333.0,-32538.0,180113.0
50028.7744140625,166.0,56664.0,-32156.0,180495.0
50042.1162109375,167.0,56004.0,-31778.0,180873.0
50055.458251953125,168.0,55352.0,-31405.0,181246.0
50068.80029296875,169.0,54707.0,-31037.0,181614.0
50082.142333984375,170.0,54070.0,-30673.0,181978.0
50095.484375,171.0,53439.0,-30311.0,182340.0
50108.826416015625,172.0,52813.0,-29953.0,182698.0
50122.16845703125,173.0,52195.0,-29601.0,183050.0
50135.510498046875,174.0,51583.0,-29255.0,183396.0
50148.8525390625,175.0,50976.0,-28914.0,183737.0
50162.1943359375,176.0,50378.0,-28579.0,184072.0
50175.536376953125,177.0,49787.0,-28247.0,184404.0
50188.87841796875,178.0,49202.0,-27918.0,184733.0
50202.220458984375,179.0,48626.0,-27591.0,185060.0
50215.5625,180.0,48057.0,-27268.0,185383.0
50228.904541015625,181.0,47493.0,-26947.0,185704.0
50242.24658203125,182.0,46936.0,-26630.0,186021.0
50255.588623046875,183.0,46387.0,-26314.0,186337.0
50268.9306640625,184.0,45845.0,-26002.0,186649.0
50282.2724609375,185.0,45311.0,-25694.0,186957.0
50295.614501953125,186.0,44785.0,-25392.0,187259.0
50308.95654296875,187.0,44263.0,-25094.0,187557.0
50322.298583984375,188.0,43747.0,-24799.0,187852.0
50335.640625,189.0,43236.0,-24508.0,188143.0
50348.982666015625,190.0,42729.0,-24222.0,188429.0
50362.32470703125,191.0,42229.0,-23940.0,188711.0
50375.666748046875,192.0,41734.0,-23659.0,188992.0
50389.0087890625,193.0,41246.0,-23381.0,189270.0
50402.3505859375,194.0,40764.0,-23104.0,189547.0
50415.692626953125,195.0,40290.0,-22830.0,189821.0
50429.03466796875,196.0,39819.0,-22560.0,190091.0
50442.376708984375,197.0,39354.0,-22295.0,190356.0
50455.71875,198.0,38894.0,-22034.0,190617.0
50469.060791015625,199.0,38439.0,-21777.0,190874.0
50482.40283203125,200.0,37988.0,-21522.0,191129.0
50495.744873046875,201.0,37540.0,-21272.0,191379.0
50509.0869140625,202.0,37092.0,-21028.0,191623.0
50522.4287109375,203.0,36644.0,-20794.0,191857.0
50535.770751953125,204.0,36195.0,-20563.0,192088.0
50549.11279296875,205.0,35750.0,-20335.0,192316.0
50562.454833984375,206.0,35314.0,-20108.0,192543.0
50575.796875,207.0,34886.0,-19881.0,192770.0
50589.138916015625,208.0,34470.0,-19654.0,192997.0
50602.48095703125,209.0,34063.0,-19427.0,193224.0
50615.822998046875,210.0,33664.0,-19197.0,193454.0
50629.1650390625,211.0,33272.0,-18967.0,193684.0
50642.5068359375,212.0,32885.0,-18738.0,193913.0
50655.848876953125,213.0,32505.0,-18511.0,194140.0
50669.19091796875,214.0,32129.0,-18287.0,194364.0
50682.532958984375,215.0,31757.0,-18068.0,194583.0
50695.875,216.0,31391.0,-17852.0,194799.0
50709.217041015625,217.0,31027.0,-17638.0,195013.0
50722.55908203125,218.0,30668.0,-17427.0,195224.0
50735.901123046875,219.0,30312.0,-17221.0,195430.0
50749.2431640625,220.0,29960.0,-17017.0,195634.0
50762.5849609375,221.0,29612.0,-16818.0,195833.0
50775.927001953125,222.0,29269.0,-16620.0,196031.0
50789.26904296875,223.0,28932.0,-16424.0,196227.0
50802.611083984375,224.0,28600.0,-16232.0,196419.0
50815.953125,225.0,28270.0,-16041.0,196610.0
50829.295166015625,226.0,27941.0,-15852.0,196799.0
50842.63720703125,227.0,27615.0,-15667.0,196984.0
50855.979248046875,228.0,27290.0,-15484.0,197167.0
50869.3212890625,229.0,26970.0,-15306.0,197345.0
50882.6630859375,230.0,26652.0,-15129.0,197522.0
50896.005126953125,231.0,26339.0,-14953.0,197698.0
50909.34716796875,232.0,26031.0,-14779.0,197872.0
50922.689208984375,233.0,25726.0,-14607.0,198044.0
50936.03125,234.0,25424.0,-14435.0,198216.0
50949.373291015625,235.0,25126.0,-14267.0,198384.0
50962.71533203125,236.0,24833.0,-14100.0,198551.0
50976.057373046875,237.0,24544.0,-13935.0,198716.0
50989.3994140625,238.0,24259.0,-13771.0,198880.0
51002.7412109375,239.0,23978.0,-13609.0,199042.0
51016.083251953125,240.0,23699.0,-13449.0,199202.0
51029.42529296875,241.0,23421.0,-13290.0,199361.0
51042.767333984375,242.0,23147.0,-13135.0,199516.0
51056.109375,243.0,22876.0,-12983.0,199668.0
51069.451416015625,244.0,22611.0,-12832.0,199819.0
51082.79345703125,245.0,22349.0,-12684.0,199967.0
51096.135498046875,246.0,22089.0,-12537.0,200114.0
51109.4775390625,247.0,21832.0,-12390.0,200261.0
51122.8193359375,248.0,21576.0,-12244.0,200407.0
51136.161376953125,249.0,21324.0,-12100.0,200551.0
51149.50341796875,250.0,21077.0,-11960.0,200691.0
51162.845458984375,251.0,20834.0,-11819.0,200832.0
51176.1875,252.0,20593.0,-11677.0,200974.0
51189.529541015625,253.0,20354.0,-11537.0,201114.0
51202.87158203125,254.0,20115.0,-11401.0,201250.0
51216.213623046875,255.0,19877.0,-11268.0,201383.0
51229.5556640625,256.0,19636.0,-11140.0,201511.0
51242.8974609375,257.0,19391.0,-11018.0,201633.0
51256.239501953125,258.0,19146.0,-10900.0,201751.0
51269.58154296875,259.0,18904.0,-10784.0,201867.0
51282.923583984375,260.0,18669.0,-10666.0,201985.0
51296.265625,261.0,18442.0,-10547.0,202104.0
51309.607666015625,262.0,18223.0,-10426.0,202225.0
51322.94970703125,263.0,18009.0,-10302.0,202349.0
51336.291748046875,264.0,17801.0,-10175.0,202476.0
51349.6337890625,265.0,17596.0,-10050.0,202601.0
51362.9755859375,266.0,17396.0,-9925.0,202726.0
51376.317626953125,267.0,17199.0,-9802.0,202849.0
51389.65966796875,268.0,17006.0,-9681.0,202970.0
51403.001708984375,269.0,16813.0,-9563.0,203088.0
51416.34375,270.0,16622.0,-9450.0,203201.0
51429.685791015625,271.0,16430.0,-9339.0,203312.0
51443.02783203125,272.0,16240.0,-9231.0,203420.0
51456.369873046875,273.0,16051.0,-9126.0,203525.0
51469.7119140625,274.0,15864.0,-9023.0,203628.0
51483.0537109375,275.0,15680.0,-8919.0,203732.0
51496.395751953125,276.0,15498.0,-8814.0,203837.0
51509.73779296875,277.0,15318.0,-8705.0,203946.0
51523.079833984375,278.0,15140.0,-8598.0,204053.0
51536.421875,279.0,14964.0,-8493.0,204158.0
51549.763916015625,280.0,14792.0,-8388.0,204263.0
51563.10595703125,281.0,14622.0,-8288.0,204363.0
51576.447998046875,282.0,14452.0,-8190.0,204461.0
51589.7900390625,283.0,14285.0,-8095.0,204556.0
51603.1318359375,284.0,14120.0,-8000.0,204651.0
51616.473876953125,285.0,13955.0,-7904.0,204747.0
51629.81591796875,286.0,13794.0,-7808.0,204843.0
51643.157958984375,287.0,13635.0,-7715.0,204936.0
51656.5,288.0,13477.0,-7621.0,205030.0
51669.842041015625,289.0,13321.0,-7529.0,205122.0
51683.18408203125,290.0,13168.0,-7439.0,205212.0
51696.526123046875,291.0,13016.0,-7352.0,205299.0
51709.8681640625,292.0,12864.0,-7266.0,205385.0
51723.2099609375,293.0,12714.0,-7180.0,205471.0
51736.552001953125,294.0,12564.0,-7099.0,205552.0
51749.89404296875,295.0,12414.0,-7018.0,205633.0
51763.236083984375,296.0,12269.0,-6938.0,205713.0
51776.578125,297.0,12126.0,-6858.0,205793.0
51789.920166015625,298.0,11984.0,-6777.0,205874.0
51803.26220703125,299.0,11845.0,-6697.0,205954.0
51816.604248046875,300.0,11707.0,-6618.0,206033.0
51829.9462890625,301.0,11570.0,-6543.0,206108.0
51843.2880859375,302.0,11431.0,-6467.0,206184.0
51856.630126953125,303.0,11294.0,-6393.0,206258.0
51869.97216796875,304.0,11158.0,-6319.0,206332.0
51883.314208984375,305.0,11023.0,-6245.0,206406.0
51896.65625,306.0,10891.0,-6172.0,206479.0
51909.998291015625,307.0,10760.0,-6098.0,206553.0
51923.34033203125,308.0,10629.0,-6024.0,206627.0
51936.682373046875,309.0,10495.0,-5957.0,206694.0
51950.0244140625,310.0,10359.0,-5893.0,206758.0
51963.3662109375,311.0,10222.0,-5834.0,206817.0
51976.708251953125,312.0,10089.0,-5774.0,206877.0
51990.05029296875,313.0,9962.0,-5714.0,206937.0
52003.392333984375,314.0,9842.0,-5652.0,206999.0
52016.734375,315.0,9727.0,-5588.0,207063.0
52030.076416015625,316.0,9615.0,-5524.0,207127.0
52043.41845703125,317.0,9507.0,-5457.0,207194.0
52056.760498046875,318.0,9402.0,-5388.0,207263.0
52070.1025390625,319.0,9297.0,-5318.0,207333.0
52083.4443359375,320.0,9192.0,-5247.0,207404.0
52096.786376953125,321.0,9087.0,-5179.0,207472.0
52110.12841796875,322.0,8984.0,-5117.0,207534.0
52123.470458984375,323.0,8880.0,-5056.0,207595.0
52136.8125,324.0,8778.0,-4995.0,207656.0
52150.154541015625,325.0,8677.0,-4936.0,207715.0
52163.49658203125,326.0,8580.0,-4877.0,207774.0
52176.838623046875,327.0,8482.0,-4818.0,207833.0
52190.1806640625,328.0,8386.0,-4760.0,207891.0
52203.5224609375,329.0,8291.0,-4705.0,207946.0
52216.864501953125,330.0,8195.0,-4649.0,208002.0
52230.20654296875,331.0,8100.0,-4595.0,208056.0
52243.548583984375,332.0,8006.0,-4541.0,208110.0
52256.890625,333.0,7912.0,-4489.0,208162.0
52270.232666015625,334.0,7818.0,-4437.0,208214.0
52283.57470703125,335.0,7723.0,-4385.0,208266.0
52296.916748046875,336.0,7632.0,-4333.0,208318.0
52310.2587890625,337.0,7542.0,-4283.0,208368.0
52323.6005859375,338.0,7456.0,-4233.0,208418.0
52336.942626953125,339.0,7372.0,-4183.0,208468.0
52350.28466796875,340.0,7288.0,-4134.0,208517.0
52363.626708984375,341.0,7206.0,-4085.0,208566.0
52376.96875,342.0,7124.0,-4035.0,208616.0
52390.310791015625,343.0,7045.0,-3987.0,208664.0
52403.65283203125,344.0,6966.0,-3940.0,208711.0
52416.994873046875,345.0,6889.0,-3893.0,208758.0
52430.3369140625,346.0,6810.0,-3847.0,208804.0
52443.6787109375,347.0,6731.0,-3803.0,208848.0
52457.020751953125,348.0,6652.0,-3760.0,208891.0
52470.36279296875,349.0,6573.0,-3718.0,208933.0
52483.704833984375,350.0,6495.0,-3677.0,208974.0
52497.046875,351.0,6416.0,-3637.0,209014.0
52510.388916015625,352.0,6339.0,-3594.0,209057.0
52523.73095703125,353.0,6263.0,-3551.0,209100.0
52537.072998046875,354.0,6189.0,-3508.0,209143.0
52550.4150390625,355.0,6117.0,-3466.0,209185.0
52563.7568359375,356.0,6044.0,-3424.0,209227.0
52577.098876953125,357.0,5972.0,-3384.0,209267.0
52590.44091796875,358.0,5898.0,-3347.0,209304.0
52603.782958984375,359.0,5821.0,-3317.0,209334.0
52617.125,360.0,5740.0,-3291.0,209360.0
52630.467041015625,361.0,5658.0,-3265.0,209386.0
52643.80908203125,362.0,5580.0,-3238.0,209413.0
52657.151123046875,363.0,5505.0,-3208.0,209443.0
52670.4931640625,364.0,5438.0,-3174.0,209477.0
52683.8349609375,365.0,5374.0,-3138.0,209513.0
52697.177001953125,366.0,5313.0,-3098.0,209553.0
52710.51904296875,367.0,5256.0,-3057.0,209594.0
52723.861083984375,368.0,5200.0,-3014.0,209637.0
52737.203125,369.0,5146.0,-2971.0,209680.0
52750.545166015625,370.0,5091.0,-2928.0,209723.0
52763.88720703125,371.0,5036.0,-2887.0,209764.0
52777.229248046875,372.0,4981.0,-2848.0,209803.0
52790.5712890625,373.0,4926.0,-2811.0,209840.0
52803.9130859375,374.0,4869.0,-2777.0,209874.0
52817.255126953125,375.0,4812.0,-2744.0,209907.0
52830.59716796875,376.0,4756.0,-2712.0,209939.0
52843.939208984375,377.0,4702.0,-2678.0,209973.0
52857.28125,378.0,4650.0,-2644.0,210007.0
52870.623291015625,379.0,4599.0,-2608.0,210043.0
52883.96533203125,380.0,4548.0,-2573.0,210078.0
52897.307373046875,381.0,4497.0,-2540.0,210111.0
52910.6494140625,382.0,4446.0,-2509.0,210142.0
52923.9912109375,383.0,4393.0,-2480.0,210171.0
52937.333251953125,384.0,4343.0,-2453.0,210198.0
52950.67529296875,385.0,4293.0,-2427.0,210224.0
52964.017333984375,386.0,4244.0,-2402.0,210249.0
52977.359375,387.0,4195.0,-2375.0,210276.0
52990.701416015625,388.0,4147.0,-2349.0,210302.0
53004.04345703125,389.0,4100.0,-2321.0,210330.0
53017.385498046875,390.0,4052.0,-2293.0,210358.0
53030.7275390625,391.0,4006.0,-2265.0,210386.0
53044.0693359375,392.0,3959.0,-2239.0,210412.0
53057.411376953125,393.0,3912.0,-2216.0,210435.0
53070.75341796875,394.0,3867.0,-2194.0,210457.0
53084.095458984375,395.0,3821.0,-2172.0,210479.0
53097.4375,396.0,3775.0,-2150.0,210501.0
53110.779541015625,397.0,3729.0,-2128.0,210523.0
53124.12158203125,398.0,3684.0,-2103.0,210548.0
53137.463623046875,399.0,3641.0,-2077.0,210574.0
53150.8056640625,400.0,3600.0,-2050.0,210601.0
53164.1474609375,401.0,3558.0,-2024.0,210627.0
53177.489501953125,402.0,3517.0,-1998.0,210653.0
53190.83154296875,403.0,3477.0,-1974.0,210677.0
53204.173583984375,404.0,3437.0,-1950.0,210701.0
53217.515625,405.0,3397.0,-1926.0,210725.0
53230.857666015625,406.0,3357.0,-1902.0,210749.0
53244.19970703125,407.0,3315.0,-1880.0,210771.0
53257.541748046875,408.0,3269.0,-1861.0,210790.0
53270.8837890625,409.0,3219.0,-1846.0,210805.0
53284.2255859375,410.0,3168.0,-1833.0,210818.0
53297.567626953125,411.0,3116.0,-1823.0,210828.0
53310.90966796875,412.0,3068.0,-1811.0,210840.0
53324.251708984375,413.0,3025.0,-1795.0,210856.0
53337.59375,414.0,2988.0,-1776.0,210875.0
53350.935791015625,415.0,2954.0,-1756.0,210895.0
53364.27783203125,416.0,2922.0,-1735.0,210916.0
53377.619873046875,417.0,2893.0,-1712.0,210939.0
53390.9619140625,418.0,2864.0,-1689.0,210962.0
53404.3037109375,419.0,2834.0,-1667.0,210984.0
53417.645751953125,420.0,2806.0,-1646.0,211005.0
53430.98779296875,421.0,2777.0,-1625.0,211026.0
53444.329833984375,422.0,2747.0,-1603.0,211048.0
53457.671875,423.0,2717.0,-1580.0,211071.0
53471.013916015625,424.0,2687.0,-1555.0,211096.0
53484.35595703125,425.0,2657.0,-1532.0,211119.0
53497.697998046875,426.0,2627.0,-1510.0,211141.0
53511.0400390625,427.0,2599.0,-1493.0,211158.0
53524.3818359375,428.0,2573.0,-1475.0,211176.0
53537.723876953125,429.0,2548.0,-1458.0,211193.0
53551.06591796875,430.0,2523.0,-1440.0,211211.0
53564.407958984375,431.0,2497.0,-1421.0,211230.0
53577.75,432.0,2470.0,-1402.0,211249.0
53591.092041015625,433.0,2440.0,-1386.0,211265.0
53604.43408203125,434.0,2410.0,-1370.0,211281.0
53617.776123046875,435.0,2379.0,-1354.0,211297.0
53631.1181640625,436.0,2352.0,-1339.0,211312.0
53644.4599609375,437.0,2326.0,-1322.0,211329.0
53657.802001953125,438.0,2302.0,-1304.0,211347.0
53671.14404296875,439.0,2279.0,-1288.0,211363.0
53684.486083984375,440.0,2255.0,-1272.0,211379.0
53697.828125,441.0,2231.0,-1256.0,211395.0
53711.170166015625,442.0,2204.0,-1240.0,211411.0
53724.51220703125,443.0,2179.0,-1226.0,211425.0
53737.854248046875,444.0,2153.0,-1209.0,211442.0
53751.1962890625,445.0,2126.0,-1193.0,211458.0
53764.5380859375,446.0,2100.0,-1178.0,211473.0
53777.880126953125,447.0,2073.0,-1166.0,211485.0
53791.22216796875,448.0,2048.0,-1155.0,211496.0
53804.564208984375,449.0,2024.0,-1142.0,211509.0
53817.90625,450.0,2001.0,-1129.0,211522.0
53831.248291015625,451.0,1979.0,-1118.0,211533.0
53844.59033203125,452.0,1956.0,-1106.0,211545.0
53857.932373046875,453.0,1933.0,-1097.0,211554.0
53871.2744140625,454.0,1909.0,-1084.0,211567.0
53884.6162109375,455.0,1887.0,-1071.0,211580.0
53897.958251953125,456.0,1866.0,-1057.0,211594.0
53911.30029296875,457.0,1846.0,-1043.0,211608.0
53924.642333984375,458.0,1822.0,-1029.0,211622.0
53937.984375,459.0,1793.0,-1018.0,211633.0
53951.326416015625,460.0,1757.0,-1013.0,211638.0
53964.66845703125,461.0,1718.0,-1009.0,211642.0
53978.010498046875,462.0,1680.0,-1006.0,211645.0
53991.3525390625,463.0,1645.0,-1002.0,211649.0
54004.6943359375,464.0,1616.0,-998.0,211653.0
54018.036376953125,465.0,1592.0,-990.0,211661.0
54031.37841796875,466.0,1572.0,-979.0,211672.0
54044.720458984375,467.0,1556.0,-963.0,211688.0
54058.0625,468.0,1546.0,-944.0,211707.0
54071.404541015625,469.0,1538.0,-926.0,211725.0
54084.74658203125,470.0,1530.0,-911.0,211740.0
54098.088623046875,471.0,1522.0,-897.0,211754.0
54111.4306640625,472.0,1512.0,-883.0,211768.0
54124.7724609375,473.0,1500.0,-871.0,211780.0
54138.114501953125,474.0,1488.0,-859.0,211792.0
54151.45654296875,475.0,1475.0,-849.0,211802.0
54164.798583984375,476.0,1461.0,-840.0,211811.0
54178.140625,477.0,1447.0,-830.0,211821.0
54191.482666015625,478.0,1433.0,-819.0,211832.0
54204.82470703125,479.0,1419.0,-807.0,211844.0
54218.166748046875,480.0,1405.0,-793.0,211858.0
54231.5087890625,481.0,1388.0,-779.0,211872.0
54244.8505859375,482.0,1373.0,-767.0,211884.0
54258.192626953125,483.0,1356.0,-756.0,211895.0
54271.53466796875,484.0,1338.0,-747.0,211904.0
54284.876708984375,485.0,1320.0,-738.0,211913.0
54298.21875,486.0,1305.0,-731.0,211920.0
54311.560791015625,487.0,1289.0,-724.0,211927.0
54324.90283203125,488.0,1275.0,-714.0,211937.0
54338.244873046875,489.0,1263.0,-703.0,211948.0
54351.5869140625,490.0,1253.0,-692.0,211959.0
54364.9287109375,491.0,1241.0,-680.0,211971.0
54378.270751953125,492.0,1228.0,-671.0,211980.0
54391.61279296875,493.0,1216.0,-663.0,211988.0
54404.954833984375,494.0,1204.0,-655.0,211996.0
54418.296875,495.0,1191.0,-646.0,212005.0
54431.638916015625,496.0,1178.0,-637.0,212014.0
54444.98095703125,497.0,1166.0,-626.0,212025.0
54458.322998046875,498.0,1152.0,-616.0,212035.0
54471.6650390625,499.0,1138.0,-607.0,212044.0
54485.0068359375,500.0,1124.0,-599.0,212052.0
54498.348876953125,501.0,1112.0,-594.0,212057.0
54511.69091796875,502.0,1101.0,-590.0,212061.0
54525.032958984375,503.0,1091.0,-587.0,212064.0
54538.375,504.0,1082.0,-583.0,212068.0
54551.717041015625,505.0,1070.0,-578.0,212073.0
54565.05908203125,506.0,1057.0,-570.0,212081.0
54578.401123046875,507.0,1046.0,-564.0,212087.0
54591.7431640625,508.0,1035.0,-555.0,212096.0
54605.0849609375,509.0,1022.0,-547.0,212104.0
54618.427001953125,510.0,1007.0,-541.0,212110.0
54631.76904296875,511.0,987.0,-539.0,212112.0
54645.111083984375,512.0,962.0,-540.0,212111.0
54658.453125,513.0,933.0,-544.0,212107.0
54671.795166015625,514.0,906.0,-550.0,212101.0
54685.13720703125,515.0,883.0,-552.0,212099.0
54698.479248046875,516.0,865.0,-552.0,212099.0
54711.8212890625,517.0,853.0,-546.0,212105.0
54725.1630859375,518.0,846.0,-538.0,212113.0
54738.505126953125,519.0,840.0,-528.0,212123.0
54751.84716796875,520.0,836.0,-520.0,212131.0
54765.189208984375,521.0,834.0,-513.0,212138.0
54778.53125,522.0,833.0,-508.0,212143.0
54791.873291015625,523.0,830.0,-502.0,212149.0
54805.21533203125,524.0,825.0,-496.0,212155.0
54818.557373046875,525.0,819.0,-491.0,212160.0
54831.8994140625,526.0,810.0,-485.0,212166.0
54845.2412109375,527.0,800.0,-479.0,212172.0
54858.583251953125,528.0,790.0,-473.0,212178.0
54871.92529296875,529.0,781.0,-469.0,212182.0
54885.267333984375,530.0,773.0,-463.0,212188.0
54898.609375,531.0,767.0,-457.0,212194.0
54911.951416015625,532.0,760.0,-450.0,212201.0
54925.29345703125,533.0,754.0,-443.0,212208.0
54938.635498046875,534.0,747.0,-437.0,212214.0
54951.9775390625,535.0,739.0,-431.0,212220.0
54965.3193359375,536.0,731.0,-422.0,212229.0
54978.661376953125,537.0,722.0,-412.0,212239.0
54992.00341796875,538.0,715.0,-401.0,212250.0
55005.345458984375,539.0,710.0,-393.0,212258.0
55018.6875,540.0,710.0,-388.0,212263.0
55032.029541015625,541.0,710.0,-383.0,212268.0
55045.37158203125,542.0,709.0,-379.0,212272.0
55058.713623046875,543.0,708.0,-373.0,212278.0
55072.0556640625,544.0,706.0,-368.0,212283.0
55085.3974609375,545.0,700.0,-364.0,212287.0
55098.739501953125,546.0,694.0,-358.0,212293.0
55112.08154296875,547.0,688.0,-353.0,212298.0
55125.423583984375,548.0,682.0,-348.0,212303.0
55138.765625,549.0,676.0,-344.0,212307.0
55152.107666015625,550.0,668.0,-341.0,212310.0
55165.44970703125,551.0,660.0,-338.0,212313.0
55178.791748046875,552.0,651.0,-334.0,212317.0
55192.1337890625,553.0,643.0,-327.0,212324.0
55205.4755859375,554.0,634.0,-320.0,212331.0
55218.817626953125,555.0,627.0,-313.0,212338.0
55232.15966796875,556.0,622.0,-308.0,212343.0
55245.501708984375,557.0,616.0,-305.0,212346.0
55258.84375,558.0,611.0,-303.0,212348.0
55272.185791015625,559.0,605.0,-300.0,212351.0
55285.52783203125,560.0,595.0,-299.0,212352.0
55298.869873046875,561.0,580.0,-302.0,212349.0
55312.2119140625,562.0,559.0,-307.0,212344.0
55325.5537109375,563.0,538.0,-314.0,212337.0
55338.895751953125,564.0,516.0,-317.0,212334.0
55352.23779296875,565.0,498.0,-318.0,212333.0
55365.579833984375,566.0,483.0,-320.0,212331.0
55378.921875,567.0,474.0,-319.0,212332.0
55392.263916015625,568.0,469.0,-315.0,212336.0
55405.60595703125,569.0,469.0,-309.0,212342.0
55418.947998046875,570.0,470.0,-305.0,212346.0
55432.2900390625,571.0,472.0,-300.0,212351.0
55445.6318359375,572.0,473.0,-295.0,212356.0
55458.973876953125,573.0,476.0,-289.0,212362.0
55472.31591796875,574.0,477.0,-283.0,212368.0
55485.657958984375,575.0,478.0,-279.0,212372.0
55499.0,576.0,478.0,-274.0,212377.0
55512.342041015625,577.0,475.0,-270.0,212381.0
55525.68408203125,578.0,471.0,-264.0,212387.0
55539.026123046875,579.0,466.0,-255.0,212396.0
55552.3681640625,580.0,463.0,-245.0,212406.0
55565.7099609375,581.0,462.0,-236.0,212415.0
55579.052001953125,582.0,460.0,-228.0,212423.0
55592.39404296875,583.0,457.0,-223.0,212428.0
55605.736083984375,584.0,450.0,-220.0,212431.0
55619.078125,585.0,442.0,-218.0,212433.0
55632.420166015625,586.0,433.0,-218.0,212433.0
55645.76220703125,587.0,423.0,-219.0,212432.0
55659.104248046875,588.0,415.0,-221.0,212430.0
55672.4462890625,589.0,406.0,-222.0,212429.0
55685.7880859375,590.0,399.0,-222.0,212429.0
55699.130126953125,591.0,395.0,-222.0,212429.0
55712.47216796875,592.0,394.0,-217.0,212434.0
55725.814208984375,593.0,393.0,-211.0,212440.0
55739.15625,594.0,394.0,-203.0,212448.0
55752.498291015625,595.0,392.0,-197.0,212454.0
55765.84033203125,596.0,389.0,-192.0,212459.0
55779.182373046875,597.0,385.0,-189.0,212462.0
55792.5244140625,598.0,378.0,-187.0,212464.0
55805.8662109375,599.0,371.0,-185.0,212466.0
55819.208251953125,600.0,365.0,-183.0,212468.0
55832.55029296875,601.0,360.0,-178.0,212473.0
55845.892333984375,602.0,359.0,-173.0,212478.0
55859.234375,603.0,358.0,-168.0,212483.0
55872.576416015625,604.0,358.0,-165.0,212486.0
55885.91845703125,605.0,356.0,-162.0,212489.0
55899.260498046875,606.0,352.0,-163.0,212488.0
55912.6025390625,607.0,348.0,-163.0,212488.0
55925.9443359375,608.0,339.0,-165.0,212486.0
55939.286376953125,609.0,324.0,-172.0,212479.0
55952.62841796875,610.0,303.0,-186.0,212465.0
55965.970458984375,611.0,282.0,-200.0,212451.0
55979.3125,612.0,262.0,-210.0,212441.0
55992.654541015625,613.0,245.0,-216.0,212435.0
56005.99658203125,614.0,234.0,-215.0,212436.0
56019.338623046875,615.0,227.0,-210.0,212441.0
56032.6806640625,616.0,224.0,-200.0,212451.0
56046.0224609375,617.0,226.0,-190.0,212461.0
56059.364501953125,618.0,230.0,-181.0,212470.0
56072.70654296875,619.0,235.0,-174.0,212477.0
56086.048583984375,620.0,240.0,-168.0,212483.0
56099.390625,621.0,242.0,-162.0,212489.0
56112.732666015625,622.0,242.0,-156.0,212495.0
56126.07470703125,623.0,242.0,-150.0,212501.0
56139.416748046875,624.0,242.0,-145.0,212506.0
56152.7587890625,625.0,241.0,-142.0,212509.0
56166.1005859375,626.0,241.0,-141.0,212510.0
56179.442626953125,627.0,241.0,-139.0,212512.0
56192.78466796875,628.0,242.0,-138.0,212513.0
56206.126708984375,629.0,246.0,-137.0,212514.0
56219.46875,630.0,251.0,-136.0,212515.0
56232.810791015625,631.0,253.0,-135.0,212516.0
56246.15283203125,632.0,253.0,-136.0,212515.0
56259.494873046875,633.0,251.0,-137.0,212514.0
56272.8369140625,634.0,246.0,-139.0,212512.0
56286.1787109375,635.0,242.0,-138.0,212513.0
56299.520751953125,636.0,238.0,-136.0,212515.0
56312.86279296875,637.0,234.0,-134.0,212517.0
56326.204833984375,638.0,230.0,-131.0,212520.0
56339.546875,639.0,229.0,-128.0,212523.0
56352.888916015625,640.0,228.0,-124.0,212527.0
56366.23095703125,641.0,227.0,-118.0,212533.0
56379.572998046875,642.0,228.0,-110.0,212541.0
56392.9150390625,643.0,227.0,-102.0,212549.0
56406.2568359375,644.0,226.0,-95.0,212556.0
56419.598876953125,645.0,226.0,-91.0,212560.0
56432.94091796875,646.0,226.0,-90.0,212561.0
56446.282958984375,647.0,225.0,-91.0,212560.0
56459.625,648.0,225.0,-93.0,212558.0
56472.967041015625,649.0,222.0,-93.0,212558.0
56486.30908203125,650.0,219.0,-92.0,212559.0
56499.651123046875,651.0,218.0,-88.0,212563.0
56512.9931640625,652.0,216.0,-83.0,212568.0
56526.3349609375,653.0,214.0,-79.0,212572.0
56539.677001953125,654.0,210.0,-76.0,212575.0
56553.01904296875,655.0,206.0,-73.0,212578.0
56566.361083984375,656.0,200.0,-70.0,212581.0
56579.703125,657.0,196.0,-69.0,212582.0
56593.045166015625,658.0,189.0,-72.0,212579.0
56606.38720703125,659.0,177.0,-79.0,212572.0
56619.729248046875,660.0,159.0,-90.0,212561.0
56633.0712890625,661.0,139.0,-104.0,212547.0
56646.4130859375,662.0,120.0,-117.0,212534.0
56659.755126953125,663.0,106.0,-126.0,212525.0
56673.09716796875,664.0,98.0,-133.0,212518.0
56686.439208984375,665.0,96.0,-135.0,212516.0
56699.78125,666.0,98.0,-133.0,212518.0
56713.123291015625,667.0,102.0,-127.0,212524.0
56726.46533203125,668.0,107.0,-121.0,212530.0
56739.807373046875,669.0,113.0,-114.0,212537.0
56753.1494140625,670.0,117.0,-108.0,212543.0
56766.4912109375,671.0,123.0,-102.0,212549.0
56779.833251953125,672.0,127.0,-96.0,212555.0
56793.17529296875,673.0,131.0,-90.0,212561.0
56806.517333984375,674.0,133.0,-86.0,212565.0
56819.859375,675.0,136.0,-82.0,212569.0
56833.201416015625,676.0,136.0,-80.0,212571.0
56846.54345703125,677.0,137.0,-78.0,212573.0
56859.885498046875,678.0,136.0,-76.0,212575.0
56873.2275390625,679.0,135.0,-74.0,212577.0
56886.5693359375,680.0,136.0,-70.0,212581.0
56899.911376953125,681.0,135.0,-65.0,212586.0
56913.25341796875,682.0,136.0,-60.0,212591.0
56926.595458984375,683.0,134.0,-59.0,212592.0
56939.9375,684.0,133.0,-62.0,212589.0
56953.279541015625,685.0,130.0,-64.0,212587.0
56966.62158203125,686.0,127.0,-65.0,212586.0
56979.963623046875,687.0,124.0,-66.0,212585.0
56993.3056640625,688.0,123.0,-66.0,212585.0
57006.6474609375,689.0,124.0,-64.0,212587.0
57019.989501953125,690.0,128.0,-60.0,212591.0
57033.33154296875,691.0,129.0,-56.0,212595.0
57046.673583984375,692.0,131.0,-53.0,212598.0
57060.015625,693.0,132.0,-49.0,212602.0
57073.357666015625,694.0,135.0,-47.0,212604.0
57086.69970703125,695.0,136.0,-46.0,212605.0
57100.041748046875,696.0,137.0,-46.0,212605.0
57113.3837890625,697.0,138.0,-47.0,212604.0
57126.7255859375,698.0,137.0,-49.0,212602.0
57140.067626953125,699.0,137.0,-52.0,212599.0
57153.40966796875,700.0,135.0,-54.0,212597.0
57166.751708984375,701.0,133.0,-56.0,212595.0
57180.09375,702.0,132.0,-56.0,212595.0
57193.435791015625,703.0,130.0,-54.0,212597.0
57206.77783203125,704.0,130.0,-51.0,212600.0
57220.119873046875,705.0,129.0,-46.0,212605.0
57233.4619140625,706.0,129.0,-42.0,212609.0
57246.8037109375,707.0,129.0,-39.0,212612.0
57260.145751953125,708.0,129.0,-37.0,212614.0
57273.48779296875,709.0,122.0,-41.0,212610.0
57286.829833984375,710.0,109.0,-51.0,212600.0
57300.171875,711.0,91.0,-63.0,212588.0
57313.513916015625,712.0,72.0,-74.0,212577.0
57326.85595703125,713.0,54.0,-83.0,212568.0
57340.197998046875,714.0,39.0,-89.0,212562.0
57353.5400390625,715.0,31.0,-90.0,212561.0
57366.8818359375,716.0,28.0,-86.0,212565.0
57380.223876953125,717.0,29.0,-81.0,212570.0
57393.56591796875,718.0,33.0,-76.0,212575.0
57406.907958984375,719.0,37.0,-71.0,212580.0
57420.25,720.0,43.0,-68.0,212583.0
57433.592041015625,721.0,45.0,-65.0,212586.0
57446.93408203125,722.0,49.0,-62.0,212589.0
57460.276123046875,723.0,53.0,-60.0,212591.0
57473.6181640625,724.0,59.0,-59.0,212592.0
57486.9599609375,725.0,64.0,-57.0,212594.0
57500.302001953125,726.0,68.0,-55.0,212596.0
57513.64404296875,727.0,72.0,-56.0,212595.0
57526.986083984375,728.0,75.0,-54.0,212597.0
57540.328125,729.0,77.0,-52.0,212599.0
57553.670166015625,730.0,78.0,-50.0,212601.0
57567.01220703125,731.0,76.0,-47.0,212604.0
57580.354248046875,732.0,74.0,-45.0,212606.0
57593.6962890625,733.0,71.0,-45.0,212606.0
57607.0380859375,734.0,69.0,-45.0,212606.0
57620.380126953125,735.0,70.0,-46.0,212605.0
57633.72216796875,736.0,70.0,-47.0,212604.0
57647.064208984375,737.0,71.0,-47.0,212604.0
57660.40625,738.0,71.0,-45.0,212606.0
57673.748291015625,739.0,72.0,-42.0,212609.0
57687.09033203125,740.0,75.0,-37.0,212614.0
57700.432373046875,741.0,79.0,-33.0,212618.0
57713.7744140625,742.0,81.0,-29.0,212622.0
57727.1162109375,743.0,83.0,-27.0,212624.0
57740.458251953125,744.0,85.0,-25.0,212626.0
57753.80029296875,745.0,88.0,-22.0,212629.0
57767.142333984375,746.0,89.0,-19.0,212632.0
57780.484375,747.0,88.0,-16.0,212635.0
57793.826416015625,748.0,87.0,-14.0,212637.0
57807.16845703125,749.0,85.0,-12.0,212639.0
57820.510498046875,750.0,85.0,-9.0,212642.0
57833.8525390625,751.0,86.0,-8.0,212643.0
57847.1943359375,752.0,88.0,-9.0,212642.0
57860.536376953125,753.0,89.0,-13.0,212638.0
57873.87841796875,754.0,89.0,-19.0,212632.0
57887.220458984375,755.0,86.0,-24.0,212627.0
57900.5625,756.0,80.0,-25.0,212626.0
57913.904541015625,757.0,73.0,-27.0,212624.0
57927.24658203125,758.0,68.0,-28.0,212623.0
57940.588623046875,759.0,65.0,-27.0,212624.0
57953.9306640625,760.0,61.0,-27.0,212624.0
57967.2724609375,761.0,55.0,-29.0,212622.0
57980.614501953125,762.0,45.0,-34.0,212617.0
57993.95654296875,763.0,30.0,-43.0,212608.0
58007.298583984375,764.0,14.0,-53.0,212598.0
58020.640625,765.0,-2.0,-61.0,212590.0
58033.982666015625,766.0,-13.0,-66.0,212585.0
58047.32470703125,767.0,-19.0,-69.0,212582.0
58060.666748046875,768.0,-19.0,-70.0,212581.0
58074.0087890625,769.0,-14.0,-67.0,212584.0
58087.3505859375,770.0,-8.0,-65.0,212586.0
58100.692626953125,771.0,-2.0,-61.0,212590.0
58114.03466796875,772.0,4.0,-56.0,212595.0
58127.376708984375,773.0,9.0,-52.0,212599.0
58140.71875,774.0,14.0,-48.0,212603.0
58154.060791015625,775.0,17.0,-47.0,212604.0
58167.40283203125,776.0,18.0,-46.0,212605.0
58180.744873046875,777.0,18.0,-47.0,212604.0
58194.0869140625,778.0,18.0,-48.0,212603.0
58207.4287109375,779.0,17.0,-48.0,212603.0
58220.770751953125,780.0,19.0,-47.0,212604.0
58234.11279296875,781.0,21.0,-43.0,212608.0
58247.454833984375,782.0,23.0,-40.0,212611.0
58260.796875,783.0,27.0,-37.0,212614.0
58274.138916015625,784.0,30.0,-36.0,212615.0
58287.48095703125,785.0,31.0,-35.0,212616.0
58300.822998046875,786.0,30.0,-36.0,212615.0
58314.1650390625,787.0,29.0,-37.0,212614.0
58327.5068359375,788.0,28.0,-36.0,212615.0
58340.848876953125,789.0,28.0,-35.0,212616.0
58354.19091796875,790.0,27.0,-33.0,212618.0
58367.532958984375,791.0,29.0,-33.0,212618.0
58380.875,792.0,31.0,-32.0,212619.0
58394.217041015625,793.0,33.0,-30.0,212621.0
58407.55908203125,794.0,36.0,-30.0,212621.0
58420.901123046875,795.0,36.0,-29.0,212622.0
58434.2431640625,796.0,35.0,-27.0,212624.0
58447.5849609375,797.0,34.0,-24.0,212627.0
58460.927001953125,798.0,34.0,-18.0,212633.0
58474.26904296875,799.0,35.0,-13.0,212638.0
58487.611083984375,800.0,37.0,-9.0,212642.0
58500.953125,801.0,38.0,-6.0,212645.0
58514.295166015625,802.0,40.0,-7.0,212644.0
58527.63720703125,803.0,40.0,-8.0,212643.0
58540.979248046875,804.0,41.0,-11.0,212640.0
58554.3212890625,805.0,42.0,-14.0,212637.0
58567.6630859375,806.0,43.0,-15.0,212636.0
58581.005126953125,807.0,42.0,-15.0,212636.0
58594.34716796875,808.0,42.0,-13.0,212638.0
58607.689208984375,809.0,41.0,-12.0,212639.0
58621.03125,810.0,37.0,-14.0,212637.0
58634.373291015625,811.0,29.0,-20.0,212631.0
58647.71533203125,812.0,15.0,-29.0,212622.0
58661.057373046875,813.0,-1.0,-41.0,212610.0
58674.3994140625,814.0,-18.0,-53.0,212598.0
58687.7412109375,815.0,-31.0,-63.0,212588.0
58701.083251953125,816.0,-37.0,-69.0,212582.0
58714.42529296875,817.0,-41.0,-73.0,212578.0
58727.767333984375,818.0,-40.0,-72.0,212579.0
58741.109375,819.0,-38.0,-68.0,212583.0
58754.451416015625,820.0,-35.0,-62.0,212589.0
58767.79345703125,821.0,-29.0,-54.0,212597.0
58781.135498046875,822.0,-24.0,-44.0,212607.0
58794.4775390625,823.0,-16.0,-34.0,212617.0
58807.8193359375,824.0,-9.0,-26.0,212625.0
58821.161376953125,825.0,-3.0,-21.0,212630.0
58834.50341796875,826.0,1.0,-20.0,212631.0
58847.845458984375,827.0,1.0,-21.0,212630.0
58861.1875,828.0,0.0,-22.0,212629.0
58874.529541015625,829.0,-2.0,-21.0,212630.0
58887.87158203125,830.0,-2.0,-18.0,212633.0
58901.213623046875,831.0,0.0,-15.0,212636.0
58914.5556640625,832.0,2.0,-13.0,212638.0
58927.8974609375,833.0,2.0,-11.0,212640.0
58941.239501953125,834.0,2.0,-12.0,212639.0
58954.58154296875,835.0,1.0,-14.0,212637.0
58967.923583984375,836.0,2.0,-14.0,212637.0
58981.265625,837.0,3.0,-12.0,212639.0
58994.607666015625,838.0,6.0,-6.0,212645.0
59007.94970703125,839.0,8.0,-1.0,212650.0
59021.291748046875,840.0,11.0,3.0,212654.0
59034.6337890625,841.0,13.0,5.0,212656.0
59047.9755859375,842.0,12.0,7.0,212658.0
59061.317626953125,843.0,13.0,7.0,212658.0
59074.65966796875,844.0,13.0,6.0,212657.0
59088.001708984375,845.0,15.0,3.0,212654.0
59101.34375,846.0,17.0,0.0,212651.0
59114.685791015625,847.0,18.0,-2.0,212649.0
59128.02783203125,848.0,16.0,-3.0,212648.0
59141.369873046875,849.0,15.0,-2.0,212649.0
59154.7119140625,850.0,15.0,1.0,212652.0
59168.0537109375,851.0,15.0,4.0,212655.0
59181.395751953125,852.0,17.0,5.0,212656.0
59194.73779296875,853.0,19.0,4.0,212655.0
59208.079833984375,854.0,20.0,4.0,212655.0
59221.421875,855.0,21.0,5.0,212656.0
59234.763916015625,856.0,24.0,8.0,212659.0
59248.10595703125,857.0,30.0,11.0,212662.0
59261.447998046875,858.0,35.0,13.0,212664.0
59274.7900390625,859.0,40.0,15.0,212666.0
59288.1318359375,860.0,42.0,15.0,212666.0
59301.473876953125,861.0,43.0,16.0,212667.0
59314.81591796875,862.0,40.0,17.0,212668.0
59328.157958984375,863.0,32.0,14.0,212665.0
59341.5,864.0,18.0,6.0,212657.0
59354.842041015625,865.0,-1.0,-3.0,212648.0
59368.18408203125,866.0,-18.0,-13.0,212638.0
59381.526123046875,867.0,-32.0,-19.0,212632.0
59394.8681640625,868.0,-42.0,-23.0,212628.0
59408.2099609375,869.0,-46.0,-26.0,212625.0
59421.552001953125,870.0,-44.0,-28.0,212623.0
59434.89404296875,871.0,-40.0,-31.0,212620.0
59448.236083984375,872.0,-34.0,-33.0,212618.0
59461.578125,873.0,-27.0,-32.0,212619.0
59474.920166015625,874.0,-18.0,-32.0,212619.0
59488.26220703125,875.0,-11.0,-30.0,212621.0
59501.604248046875,876.0,-4.0,-27.0,212624.0
59514.9462890625,877.0,3.0,-23.0,212628.0
59528.2880859375,878.0,9.0,-17.0,212634.0
59541.630126953125,879.0,14.0,-12.0,212639.0
59554.97216796875,880.0,18.0,-8.0,212643.0
59568.314208984375,881.0,20.0,-7.0,212644.0
59581.65625,882.0,21.0,-6.0,212645.0
59594.998291015625,883.0,23.0,-3.0,212648.0
59608.34033203125,884.0,25.0,0.0,212651.0
59621.682373046875,885.0,27.0,2.0,212653.0
59635.0244140625,886.0,27.0,3.0,212654.0
59648.3662109375,887.0,25.0,5.0,212656.0
59661.708251953125,888.0,20.0,4.0,212655.0
59675.05029296875,889.0,15.0,2.0,212653.0
59688.392333984375,890.0,13.0,-1.0,212650.0
59701.734375,891.0,11.0,-1.0,212650.0
59715.076416015625,892.0,12.0,1.0,212652.0
59728.41845703125,893.0,13.0,4.0,212655.0
59741.760498046875,894.0,15.0,7.0,212658.0
59755.1025390625,895.0,18.0,8.0,212659.0
59768.4443359375,896.0,21.0,9.0,212660.0
59781.786376953125,897.0,25.0,11.0,212662.0
59795.12841796875,898.0,29.0,12.0,212663.0
59808.470458984375,899.0,33.0,9.0,212660.0
59821.8125,900.0,37.0,6.0,212657.0
59835.154541015625,901.0,39.0,4.0,212655.0
59848.49658203125,902.0,38.0,4.0,212655.0
59861.838623046875,903.0,38.0,6.0,212657.0
59875.1806640625,904.0,37.0,7.0,212658.0
59888.5224609375,905.0,38.0,6.0,212657.0
59901.864501953125,906.0,39.0,4.0,212655.0
59915.20654296875,907.0,39.0,2.0,212653.0
59928.548583984375,908.0,38.0,1.0,212652.0
59941.890625,909.0,38.0,2.0,212653.0
59955.232666015625,910.0,39.0,3.0,212654.0
59968.57470703125,911.0,39.0,7.0,212658.0
59981.916748046875,912.0,42.0,10.0,212661.0
59995.2587890625,913.0,44.0,13.0,212664.0
60008.6005859375,914.0,44.0,12.0,212663.0
60021.942626953125,915.0,37.0,6.0,212657.0
60035.28466796875,916.0,25.0,-4.0,212647.0
60048.626708984375,917.0,8.0,-16.0,212635.0
60061.96875,918.0,-10.0,-27.0,212624.0
60075.310791015625,919.0,-23.0,-37.0,212614.0
60088.65283203125,920.0,-32.0,-43.0,212608.0
60101.994873046875,921.0,-37.0,-45.0,212606.0
60115.3369140625,922.0,-36.0,-47.0,212604.0
60128.6787109375,923.0,-34.0,-45.0,212606.0
60142.020751953125,924.0,-30.0,-45.0,212606.0
60155.36279296875,925.0,-26.0,-42.0,212609.0
60168.704833984375,926.0,-19.0,-39.0,212612.0
60182.046875,927.0,-11.0,-34.0,212617.0
60195.388916015625,928.0,-1.0,-30.0,212621.0
60208.73095703125,929.0,7.0,-24.0,212627.0
60222.072998046875,930.0,13.0,-20.0,212631.0
60235.4150390625,931.0,16.0,-17.0,212634.0
60248.7568359375,932.0,17.0,-16.0,212635.0
60262.098876953125,933.0,17.0,-13.0,212638.0
60275.44091796875,934.0,17.0,-10.0,212641.0
60288.782958984375,935.0,16.0,-8.0,212643.0
60302.125,936.0,15.0,-6.0,212645.0
60315.467041015625,937.0,15.0,-6.0,212645.0
60328.80908203125,938.0,14.0,-6.0,212645.0
60342.151123046875,939.0,12.0,-7.0,212644.0
60355.4931640625,940.0,10.0,-7.0,212644.0
60368.8349609375,941.0,10.0,-9.0,212642.0
60382.177001953125,942.0,11.0,-10.0,212641.0
60395.51904296875,943.0,14.0,-11.0,212640.0
60408.861083984375,944.0,19.0,-10.0,212641.0
60422.203125,945.0,25.0,-6.0,212645.0
60435.545166015625,946.0,33.0,1.0,212652.0
60448.88720703125,947.0,39.0,6.0,212657.0
60462.229248046875,948.0,43.0,10.0,212661.0
60475.5712890625,949.0,44.0,11.0,212662.0
60488.9130859375,950.0,43.0,10.0,212661.0
60502.255126953125,951.0,39.0,9.0,212660.0
60515.59716796875,952.0,35.0,6.0,212657.0
60528.939208984375,953.0,30.0,6.0,212657.0
60542.28125,954.0,23.0,6.0,212657.0
60555.623291015625,955.0,19.0,7.0,212658.0
60568.96533203125,956.0,18.0,7.0,212658.0
60582.307373046875,957.0,20.0,8.0,212659.0
60595.6494140625,958.0,22.0,11.0,212662.0
60608.9912109375,959.0,26.0,15.0,212666.0
60622.333251953125,960.0,30.0,19.0,212670.0
60635.67529296875,961.0,32.0,20.0,212671.0
60649.017333984375,962.0,33.0,19.0,212670.0
60662.359375,963.0,32.0,17.0,212668.0
60675.701416015625,964.0,29.0,15.0,212666.0
60689.04345703125,965.0,28.0,14.0,212665.0
60702.385498046875,966.0,30.0,13.0,212664.0
60715.7275390625,967.0,32.0,11.0,212662.0
60729.0693359375,968.0,33.0,9.0,212660.0
60742.411376953125,969.0,28.0,1.0,212652.0
60755.75341796875,970.0,15.0,-12.0,212639.0
60769.095458984375,971.0,-2.0,-26.0,212625.0
60782.4375,972.0,-20.0,-38.0,212613.0
60795.779541015625,973.0,-35.0,-47.0,212604.0
60809.12158203125,974.0,-44.0,-52.0,212599.0
60822.463623046875,975.0,-48.0,-54.0,212597.0
60835.8056640625,976.0,-46.0,-50.0,212601.0
60849.1474609375,977.0,-41.0,-44.0,212607.0
60862.489501953125,978.0,-33.0,-35.0,212616.0
60875.83154296875,979.0,-25.0,-27.0,212624.0
60889.173583984375,980.0,-15.0,-21.0,212630.0
60902.515625,981.0,-8.0,-18.0,212633.0
60915.857666015625,982.0,0.0,-14.0,212637.0
60929.19970703125,983.0,7.0,-11.0,212640.0
60942.541748046875,984.0,12.0,-7.0,212644.0
60955.8837890625,985.0,16.0,-3.0,212648.0
60969.2255859375,986.0,17.0,1.0,212652.0
60982.567626953125,987.0,17.0,5.0,212656.0
60995.90966796875,988.0,17.0,8.0,212659.0
61009.251708984375,989.0,17.0,7.0,212658.0
61022.59375,990.0,16.0,7.0,212658.0
61035.935791015625,991.0,14.0,4.0,212655.0
61049.27783203125,992.0,13.0,-1.0,212650.0
61062.619873046875,993.0,11.0,-7.0,212644.0
61075.9619140625,994.0,8.0,-13.0,212638.0
61089.3037109375,995.0,6.0,-18.0,212633.0
61102.645751953125,996.0,5.0,-22.0,212629.0
61115.98779296875,997.0,6.0,-24.0,212627.0
61129.329833984375,998.0,9.0,-23.0,212628.0
61142.671875,999.0,13.0,-19.0,212632.0
61156.013916015625,1000.0,16.0,-17.0,212634.0
61169.35595703125,1001.0,18.0,-16.0,212635.0
61182.697998046875,1002.0,21.0,-14.0,212637.0
61196.0400390625,1003.0,25.0,-12.0,212639.0
61209.3818359375,1004.0,28.0,-7.0,212644.0
61222.723876953125,1005.0,30.0,-3.0,212648.0
61236.06591796875,1006.0,31.0,2.0,212653.0
61249.407958984375,1007.0,31.0,6.0,212657.0
61262.75,1008.0,32.0,7.0,212658.0
61276.092041015625,1009.0,33.0,5.0,212656.0
61289.43408203125,1010.0,33.0,1.0,212652.0
61302.776123046875,1011.0,33.0,-1.0,212650.0
61316.1181640625,1012.0,32.0,-4.0,212647.0
61329.4599609375,1013.0,31.0,-5.0,212646.0
61342.802001953125,1014.0,33.0,-6.0,212645.0
61356.14404296875,1015.0,37.0,-6.0,212645.0
61369.486083984375,1016.0,41.0,-5.0,212646.0
61382.828125,1017.0,46.0,-4.0,212647.0
61396.170166015625,1018.0,47.0,-2.0,212649.0
61409.51220703125,1019.0,45.0,-2.0,212649.0
61422.854248046875,1020.0,36.0,-6.0,212645.0
61436.1962890625,1021.0,22.0,-14.0,212637.0
61449.5380859375,1022.0,2.0,-25.0,212626.0
61462.880126953125,1023.0,-16.0,-36.0,212615.0
61476.22216796875,1024.0,-32.0,-47.0,212604.0
61489.564208984375,1025.0,-44.0,-55.0,212596.0
61502.90625,1026.0,-51.0,-57.0,212594.0
61516.248291015625,1027.0,-54.0,-55.0,212596.0
61529.59033203125,1028.0,-52.0,-50.0,212601.0
61542.932373046875,1029.0,-48.0,-42.0,212609.0
61556.2744140625,1030.0,-41.0,-34.0,212617.0
61569.6162109375,1031.0,-34.0,-27.0,212624.0
61582.958251953125,1032.0,-25.0,-22.0,212629.0
61596.30029296875,1033.0,-17.0,-17.0,212634.0
61609.642333984375,1034.0,-10.0,-10.0,212641.0
61622.984375,1035.0,-4.0,-5.0,212646.0
61636.326416015625,1036.0,-2.0,-3.0,212648.0
61649.66845703125,1037.0,-1.0,-3.0,212648.0
61663.010498046875,1038.0,-1.0,-5.0,212646.0
61676.3525390625,1039.0,-2.0,-7.0,212644.0
61689.6943359375,1040.0,-1.0,-9.0,212642.0
61703.036376953125,1041.0,-1.0,-9.0,212642.0
61716.37841796875,1042.0,0.0,-8.0,212643.0
61729.720458984375,1043.0,-2.0,-5.0,212646.0
61743.0625,1044.0,-4.0,-2.0,212649.0
61756.404541015625,1045.0,-7.0,0.0,212651.0
61769.74658203125,1046.0,-8.0,2.0,212653.0
61783.088623046875,1047.0,-9.0,4.0,212655.0
61796.4306640625,1048.0,-9.0,7.0,212658.0
61809.7724609375,1049.0,-9.0,9.0,212660.0
61823.114501953125,1050.0,-6.0,10.0,212661.0
61836.45654296875,1051.0,-1.0,10.0,212661.0
61849.798583984375,1052.0,4.0,11.0,212662.0
61863.140625,1053.0,9.0,11.0,212662.0
61876.482666015625,1054.0,14.0,11.0,212662.0
61889.82470703125,1055.0,18.0,11.0,212662.0
61903.166748046875,1056.0,20.0,11.0,212662.0
61916.5087890625,1057.0,21.0,10.0,212661.0
61929.8505859375,1058.0,19.0,11.0,212662.0
61943.192626953125,1059.0,19.0,13.0,212664.0
61956.53466796875,1060.0,19.0,16.0,212667.0
61969.876708984375,1061.0,21.0,20.0,212671.0
61983.21875,1062.0,24.0,23.0,212674.0
61996.560791015625,1063.0,27.0,23.0,212674.0
62009.90283203125,1064.0,31.0,21.0,212672.0
62023.244873046875,1065.0,34.0,19.0,212670.0
62036.5869140625,1066.0,34.0,17.0,212668.0
62049.9287109375,1067.0,34.0,14.0,212665.0
62063.270751953125,1068.0,30.0,13.0,212664.0
62076.61279296875,1069.0,26.0,13.0,212664.0
62089.954833984375,1070.0,20.0,11.0,212662.0
62103.296875,1071.0,7.0,5.0,212656.0
62116.638916015625,1072.0,-8.0,-5.0,212646.0
62129.98095703125,1073.0,-26.0,-18.0,212633.0
62143.322998046875,1074.0,-41.0,-31.0,212620.0
62156.6650390625,1075.0,-54.0,-42.0,212609.0
62170.0068359375,1076.0,-61.0,-49.0,212602.0
62183.348876953125,1077.0,-63.0,-52.0,212599.0
62196.69091796875,1078.0,-62.0,-51.0,212600.0
62210.032958984375,1079.0,-58.0,-47.0,212604.0
62223.375,1080.0,-51.0,-44.0,212607.0
62236.717041015625,1081.0,-43.0,-41.0,212610.0
62250.05908203125,1082.0,-33.0,-38.0,212613.0
62263.401123046875,1083.0,-25.0,-33.0,212618.0
62276.7431640625,1084.0,-17.0,-29.0,212622.0
62290.0849609375,1085.0,-13.0,-24.0,212627.0
62303.427001953125,1086.0,-10.0,-20.0,212631.0
62316.76904296875,1087.0,-9.0,-17.0,212634.0
62330.111083984375,1088.0,-8.0,-13.0,212638.0
62343.453125,1089.0,-6.0,-10.0,212641.0
62356.795166015625,1090.0,-3.0,-8.0,212643.0
62370.13720703125,1091.0,-1.0,-6.0,212645.0
62383.479248046875,1092.0,1.0,-5.0,212646.0
62396.8212890625,1093.0,4.0,-5.0,212646.0
62410.1630859375,1094.0,7.0,-5.0,212646.0
62423.505126953125,1095.0,7.0,-7.0,212644.0
62436.84716796875,1096.0,7.0,-10.0,212641.0
62450.189208984375,1097.0,6.0,-12.0,212639.0
62463.53125,1098.0,4.0,-15.0,212636.0
62476.873291015625,1099.0,4.0,-18.0,212633.0
62490.21533203125,1100.0,3.0,-18.0,212633.0
62503.557373046875,1101.0,1.0,-17.0,212634.0
62516.8994140625,1102.0,-2.0,-15.0,212636.0
62530.2412109375,1103.0,-4.0,-12.0,212639.0
62543.583251953125,1104.0,-5.0,-8.0,212643.0
62556.92529296875,1105.0,-3.0,-5.0,212646.0
62570.267333984375,1106.0,1.0,0.0,212651.0
62583.609375,1107.0,6.0,4.0,212655.0
62596.951416015625,1108.0,10.0,8.0,212659.0
62610.29345703125,1109.0,13.0,12.0,212663.0
62623.635498046875,1110.0,14.0,14.0,212665.0
62636.9775390625,1111.0,15.0,14.0,212665.0
62650.3193359375,1112.0,14.0,13.0,212664.0
62663.661376953125,1113.0,13.0,12.0,212663.0
62677.00341796875,1114.0,11.0,12.0,212663.0
62690.345458984375,1115.0,10.0,12.0,212663.0
62703.6875,1116.0,9.0,12.0,212663.0
62717.029541015625,1117.0,9.0,14.0,212665.0
62730.37158203125,1118.0,8.0,15.0,212666.0
62743.713623046875,1119.0,7.0,16.0,212667.0
62757.0556640625,1120.0,6.0,16.0,212667.0
62770.3974609375,1121.0,1.0,11.0,212662.0
62783.739501953125,1122.0,-9.0,1.0,212652.0
62797.08154296875,1123.0,-21.0,-12.0,212639.0
62810.423583984375,1124.0,-36.0,-23.0,212628.0
62823.765625,1125.0,-50.0,-35.0,212616.0
62837.107666015625,1126.0,-59.0,-43.0,212608.0
62850.44970703125,1127.0,-64.0,-46.0,212605.0
62863.791748046875,1128.0,-66.0,-48.0,212603.0
62877.1337890625,1129.0,-65.0,-48.0,212603.0
62890.4755859375,1130.0,-62.0,-48.0,212603.0
62903.817626953125,1131.0,-57.0,-47.0,212604.0
62917.15966796875,1132.0,-52.0,-45.0,212606.0
62930.501708984375,1133.0,-48.0,-43.0,212608.0
62943.84375,1134.0,-44.0,-39.0,212612.0
62957.185791015625,1135.0,-38.0,-36.0,212615.0
62970.52783203125,1136.0,-32.0,-31.0,212620.0
62983.869873046875,1137.0,-26.0,-27.0,212624.0
62997.2119140625,1138.0,-20.0,-23.0,212628.0
63010.5537109375,1139.0,-14.0,-21.0,212630.0
63023.895751953125,1140.0,-7.0,-17.0,212634.0
63037.23779296875,1141.0,-1.0,-14.0,212637.0
63050.579833984375,1142.0,5.0,-10.0,212641.0
63063.921875,1143.0,8.0,-8.0,212643.0
63077.263916015625,1144.0,8.0,-9.0,212642.0
63090.60595703125,1145.0,5.0,-11.0,212640.0
63103.947998046875,1146.0,0.0,-11.0,212640.0
63117.2900390625,1147.0,-3.0,-9.0,212642.0
63130.6318359375,1148.0,-4.0,-6.0,212645.0
63143.973876953125,1149.0,-3.0,-3.0,212648.0
63157.31591796875,1150.0,1.0,-1.0,212650.0
63170.657958984375,1151.0,6.0,1.0,212652.0
63184.0,1152.0,12.0,4.0,212655.0
63197.342041015625,1153.0,17.0,8.0,212659.0
63210.68408203125,1154.0,22.0,12.0,212663.0
63224.026123046875,1155.0,25.0,15.0,212666.0
63237.3681640625,1156.0,28.0,15.0,212666.0
63250.7099609375,1157.0,29.0,13.0,212664.0
63264.052001953125,1158.0,29.0,10.0,212661.0
63277.39404296875,1159.0,26.0,7.0,212658.0
63290.736083984375,1160.0,20.0,4.0,212655.0
63304.078125,1161.0,14.0,1.0,212652.0
63317.420166015625,1162.0,9.0,-1.0,212650.0
63330.76220703125,1163.0,5.0,-2.0,212649.0
63344.104248046875,1164.0,5.0,-3.0,212648.0
63357.4462890625,1165.0,6.0,-3.0,212648.0
63370.7880859375,1166.0,8.0,-3.0,212648.0
63384.130126953125,1167.0,9.0,-2.0,212649.0
63397.47216796875,1168.0,10.0,1.0,212652.0
63410.814208984375,1169.0,12.0,6.0,212657.0
63424.15625,1170.0,15.0,10.0,212661.0
63437.498291015625,1171.0,17.0,12.0,212663.0
63450.84033203125,1172.0,15.0,11.0,212662.0
63464.182373046875,1173.0,7.0,7.0,212658.0
63477.5244140625,1174.0,-7.0,-2.0,212649.0
63490.8662109375,1175.0,-24.0,-12.0,212639.0
63504.208251953125,1176.0,-39.0,-21.0,212630.0
63517.55029296875,1177.0,-48.0,-29.0,212622.0
63530.892333984375,1178.0,-52.0,-33.0,212618.0
63544.234375,1179.0,-54.0,-34.0,212617.0
63557.576416015625,1180.0,-55.0,-35.0,212616.0
63570.91845703125,1181.0,-53.0,-32.0,212619.0
63584.260498046875,1182.0,-50.0,-30.0,212621.0
63597.6025390625,1183.0,-43.0,-26.0,212625.0
63610.9443359375,1184.0,-34.0,-21.0,212630.0
63624.286376953125,1185.0,-28.0,-17.0,212634.0
63637.62841796875,1186.0,-24.0,-15.0,212636.0
63650.970458984375,1187.0,-21.0,-14.0,212637.0
63664.3125,1188.0,-21.0,-13.0,212638.0
63677.654541015625,1189.0,-22.0,-12.0,212639.0
63690.99658203125,1190.0,-22.0,-12.0,212639.0
63704.338623046875,1191.0,-20.0,-11.0,212640.0
63717.6806640625,1192.0,-17.0,-10.0,212641.0
63731.0224609375,1193.0,-14.0,-8.0,212643.0
63744.364501953125,1194.0,-10.0,-7.0,212644.0
63757.70654296875,1195.0,-7.0,-7.0,212644.0
63771.048583984375,1196.0,-5.0,-7.0,212644.0
63784.390625,1197.0,-4.0,-6.0,212645.0
63797.732666015625,1198.0,-3.0,-6.0,212645.0
63811.07470703125,1199.0,-2.0,-7.0,212644.0
63824.416748046875,1200.0,1.0,-9.0,212642.0
63837.7587890625,1201.0,4.0,-10.0,212641.0
63851.1005859375,1202.0,8.0,-8.0,212643.0
63864.442626953125,1203.0,9.0,-3.0,212648.0
63877.78466796875,1204.0,8.0,0.0,212651.0
63891.126708984375,1205.0,8.0,1.0,212652.0
63904.46875,1206.0,8.0,1.0,212652.0
63917.810791015625,1207.0,7.0,2.0,212653.0
63931.15283203125,1208.0,5.0,3.0,212654.0
63944.494873046875,1209.0,5.0,5.0,212656.0
63957.8369140625,1210.0,5.0,9.0,212660.0
63971.1787109375,1211.0,7.0,13.0,212664.0
63984.520751953125,1212.0,9.0,16.0,212667.0
63997.86279296875,1213.0,11.0,17.0,212668.0
64011.204833984375,1214.0,11.0,17.0,212668.0
64024.546875,1215.0,10.0,18.0,212669.0
64037.888916015625,1216.0,11.0,19.0,212670.0
64051.23095703125,1217.0,12.0,21.0,212672.0
64064.572998046875,1218.0,12.0,22.0,212673.0
64077.9150390625,1219.0,12.0,23.0,212674.0
64091.2568359375,1220.0,12.0,26.0,212677.0
64104.598876953125,1221.0,12.0,29.0,212680.0
64117.94091796875,1222.0,8.0,27.0,212678.0
64131.282958984375,1223.0,-1.0,21.0,212672.0
64144.625,1224.0,-12.0,11.0,212662.0
64157.967041015625,1225.0,-28.0,-2.0,212649.0
64171.30908203125,1226.0,-43.0,-14.0,212637.0
64184.651123046875,1227.0,-54.0,-26.0,212625.0
64197.9931640625,1228.0,-63.0,-35.0,212616.0
64211.3349609375,1229.0,-67.0,-39.0,212612.0
64224.677001953125,1230.0,-67.0,-41.0,212610.0
64238.01904296875,1231.0,-64.0,-39.0,212612.0
64251.361083984375,1232.0,-59.0,-36.0,212615.0
64264.703125,1233.0,-52.0,-32.0,212619.0
64278.045166015625,1234.0,-43.0,-28.0,212623.0
64291.38720703125,1235.0,-36.0,-24.0,212627.0
64304.729248046875,1236.0,-29.0,-20.0,212631.0
64318.0712890625,1237.0,-21.0,-17.0,212634.0
64331.4130859375,1238.0,-16.0,-15.0,212636.0
64344.755126953125,1239.0,-11.0,-14.0,212637.0
64358.09716796875,1240.0,-7.0,-13.0,212638.0
64371.439208984375,1241.0,-3.0,-12.0,212639.0
64384.78125,1242.0,2.0,-10.0,212641.0
64398.123291015625,1243.0,4.0,-9.0,212642.0
64411.46533203125,1244.0,7.0,-7.0,212644.0
64424.807373046875,1245.0,8.0,-5.0,212646.0
64438.1494140625,1246.0,6.0,-4.0,212647.0
64451.4912109375,1247.0,3.0,-2.0,212649.0
64464.833251953125,1248.0,-1.0,-2.0,212649.0
64478.17529296875,1249.0,-3.0,-1.0,212650.0
64491.517333984375,1250.0,-4.0,1.0,212652.0
64504.859375,1251.0,-3.0,6.0,212657.0
64518.201416015625,1252.0,1.0,11.0,212662.0
64531.54345703125,1253.0,6.0,16.0,212667.0
64544.885498046875,1254.0,10.0,21.0,212672.0
64558.2275390625,1255.0,14.0,25.0,212676.0
64571.5693359375,1256.0,18.0,26.0,212677.0
64584.911376953125,1257.0,22.0,28.0,212679.0
64598.25341796875,1258.0,24.0,29.0,212680.0
64611.595458984375,1259.0,24.0,28.0,212679.0
64624.9375,1260.0,24.0,29.0,212680.0
64638.279541015625,1261.0,23.0,31.0,212682.0
64651.62158203125,1262.0,22.0,31.0,212682.0
64664.963623046875,1263.0,22.0,31.0,212682.0
64678.3056640625,1264.0,22.0,32.0,212683.0
64691.6474609375,1265.0,21.0,31.0,212682.0
64704.989501953125,1266.0,19.0,30.0,212681.0
64718.33154296875,1267.0,18.0,28.0,212679.0
64731.673583984375,1268.0,16.0,28.0,212679.0
64745.015625,1269.0,15.0,27.0,212678.0
64758.357666015625,1270.0,13.0,24.0,212675.0
64771.69970703125,1271.0,6.0,17.0,212668.0
64785.041748046875,1272.0,-8.0,6.0,212657.0
64798.3837890625,1273.0,-21.0,-7.0,212644.0
64811.7255859375,1274.0,-36.0,-21.0,212630.0
64825.067626953125,1275.0,-51.0,-33.0,212618.0
64838.40966796875,1276.0,-61.0,-40.0,212611.0
64851.751708984375,1277.0,-67.0,-44.0,212607.0
64865.09375,1278.0,-69.0,-43.0,212608.0
64878.435791015625,1279.0,-66.0,-41.0,212610.0
64891.77783203125,1280.0,-59.0,-38.0,212613.0
64905.119873046875,1281.0,-51.0,-35.0,212616.0
64918.4619140625,1282.0,-41.0,-30.0,212621.0
64931.8037109375,1283.0,-31.0,-23.0,212628.0
64945.145751953125,1284.0,-23.0,-17.0,212634.0
64958.48779296875,1285.0,-16.0,-11.0,212640.0
64971.829833984375,1286.0,-11.0,-5.0,212646.0
64985.171875,1287.0,-8.0,-3.0,212648.0
64998.513916015625,1288.0,-6.0,-3.0,212648.0
65011.85595703125,1289.0,-5.0,-4.0,212647.0
65025.197998046875,1290.0,-4.0,-4.0,212647.0
65038.5400390625,1291.0,-3.0,-2.0,212649.0
65051.8818359375,1292.0,-1.0,1.0,212652.0
65065.223876953125,1293.0,-2.0,5.0,212656.0
65078.56591796875,1294.0,-3.0,9.0,212660.0
65091.907958984375,1295.0,-5.0,13.0,212664.0
65105.25,1296.0,-7.0,15.0,212666.0
65118.592041015625,1297.0,-9.0,14.0,212665.0
65131.93408203125,1298.0,-11.0,13.0,212664.0
65145.276123046875,1299.0,-10.0,12.0,212663.0
65158.6181640625,1300.0,-7.0,12.0,212663.0
65171.9599609375,1301.0,-2.0,12.0,212663.0
65185.302001953125,1302.0,5.0,13.0,212664.0
65198.64404296875,1303.0,9.0,13.0,212664.0
65211.986083984375,1304.0,11.0,12.0,212663.0
65225.328125,1305.0,9.0,12.0,212663.0
65238.670166015625,1306.0,8.0,13.0,212664.0
65252.01220703125,1307.0,9.0,17.0,212668.0
65265.354248046875,1308.0,10.0,22.0,212673.0
65278.6962890625,1309.0,12.0,26.0,212677.0
65292.0380859375,1310.0,17.0,29.0,212680.0
65305.380126953125,1311.0,23.0,31.0,212682.0
65318.72216796875,1312.0,27.0,34.0,212685.0
65332.064208984375,1313.0,31.0,35.0,212686.0
65345.40625,1314.0,33.0,36.0,212687.0
65358.748291015625,1315.0,33.0,36.0,212687.0
65372.09033203125,1316.0,33.0,36.0,212687.0
65385.432373046875,1317.0,32.0,33.0,212684.0
65398.7744140625,1318.0,32.0,31.0,212682.0
65412.1162109375,1319.0,32.0,28.0,212679.0
65425.458251953125,1320.0,29.0,23.0,212674.0
65438.80029296875,1321.0,18.0,18.0,212669.0
65452.142333984375,1322.0,3.0,10.0,212661.0
65465.484375,1323.0,-14.0,2.0,212653.0
65478.826416015625,1324.0,-30.0,-6.0,212645.0
65492.16845703125,1325.0,-40.0,-11.0,212640.0
65505.510498046875,1326.0,-45.0,-14.0,212637.0
65518.8525390625,1327.0,-43.0,-15.0,212636.0
65532.1943359375,1328.0,-38.0,-13.0,212638.0
65545.53637695312,1329.0,-30.0,-10.0,212641.0
65558.87841796875,1330.0,-22.0,-8.0,212643.0
65572.22045898438,1331.0,-14.0,-5.0,212646.0
65585.5625,1332.0,-8.0,-1.0,212650.0
65598.90454101562,1333.0,-2.0,3.0,212654.0
65612.24658203125,1334.0,3.0,7.0,212658.0
65625.58862304688,1335.0,7.0,11.0,212662.0
65638.9306640625,1336.0,11.0,15.0,212666.0
65652.2724609375,1337.0,15.0,17.0,212668.0
65665.61450195312,1338.0,18.0,17.0,212668.0
65678.95654296875,1339.0,19.0,17.0,212668.0
65692.29858398438,1340.0,21.0,17.0,212668.0
65705.640625,1341.0,22.0,19.0,212670.0
65718.98266601562,1342.0,23.0,20.0,212671.0
65732.32470703125,1343.0,22.0,20.0,212671.0
65745.66674804688,1344.0,18.0,17.0,212668.0
65759.0087890625,1345.0,13.0,15.0,212666.0
65772.3505859375,1346.0,9.0,12.0,212663.0
65785.69262695312,1347.0,5.0,9.0,212660.0
65799.03466796875,1348.0,1.0,7.0,212658.0
65812.37670898438,1349.0,-1.0,5.0,212656.0
65825.71875,1350.0,1.0,4.0,212655.0
65839.06079101562,1351.0,3.0,2.0,212653.0
65852.40283203125,1352.0,5.0,1.0,212652.0
65865.74487304688,1353.0,8.0,0.0,212651.0
65879.0869140625,1354.0,10.0,-1.0,212650.0
65892.4287109375,1355.0,11.0,-1.0,212650.0
65905.77075195312,1356.0,12.0,1.0,212652.0
65919.11279296875,1357.0,15.0,4.0,212655.0
65932.45483398438,1358.0,16.0,7.0,212658.0
65945.796875,1359.0,19.0,10.0,212661.0
65959.13891601562,1360.0,21.0,12.0,212663.0
65972.48095703125,1361.0,22.0,13.0,212664.0
65985.82299804688,1362.0,22.0,13.0,212664.0
65999.1650390625,1363.0,22.0,13.0,212664.0
66012.5068359375,1364.0,22.0,11.0,212662.0
66025.84887695312,1365.0,23.0,11.0,212662.0
66039.19091796875,1366.0,24.0,9.0,212660.0
66052.53295898438,1367.0,25.0,8.0,212659.0
66065.875,1368.0,27.0,6.0,212657.0
66079.21704101562,1369.0,29.0,5.0,212656.0
66092.55908203125,1370.0,28.0,6.0,212657.0
66105.90112304688,1371.0,23.0,7.0,212658.0
66119.2431640625,1372.0,12.0,4.0,212655.0
66132.5849609375,1373.0,-7.0,-3.0,212648.0
66145.92700195312,1374.0,-27.0,-11.0,212640.0
66159.26904296875,1375.0,-46.0,-18.0,212633.0
66172.61108398438,1376.0,-62.0,-25.0,212626.0
66185.953125,1377.0,-73.0,-29.0,212622.0
66199.29516601562,1378.0,-77.0,-32.0,212619.0
66212.63720703125,1379.0,-74.0,-35.0,212616.0
66225.97924804688,1380.0,-65.0,-34.0,212617.0
66239.3212890625,1381.0,-55.0,-32.0,212619.0
66252.6630859375,1382.0,-48.0,-29.0,212622.0
66266.00512695312,1383.0,-41.0,-25.0,212626.0
66279.34716796875,1384.0,-36.0,-23.0,212628.0
66292.68920898438,1385.0,-30.0,-22.0,212629.0
66306.03125,1386.0,-27.0,-19.0,212632.0
66319.37329101562,1387.0,-25.0,-15.0,212636.0
66332.71533203125,1388.0,-23.0,-9.0,212642.0
66346.05737304688,1389.0,-22.0,-4.0,212647.0
66359.3994140625,1390.0,-19.0,0.0,212651.0
66372.7412109375,1391.0,-16.0,3.0,212654.0
66386.08325195312,1392.0,-10.0,5.0,212656.0
66399.42529296875,1393.0,-5.0,3.0,212654.0
66412.76733398438,1394.0,-2.0,-1.0,212650.0
66426.109375,1395.0,0.0,-6.0,212645.0
66439.45141601562,1396.0,1.0,-9.0,212642.0
66452.79345703125,1397.0,0.0,-10.0,212641.0
66466.13549804688,1398.0,-3.0,-10.0,212641.0
66479.4775390625,1399.0,-6.0,-9.0,212642.0
66492.8193359375,1400.0,-9.0,-9.0,212642.0
66506.16137695312,1401.0,-11.0,-8.0,212643.0
66519.50341796875,1402.0,-12.0,-7.0,212644.0
66532.84545898438,1403.0,-11.0,-6.0,212645.0
66546.1875,1404.0,-6.0,-2.0,212649.0
66559.52954101562,1405.0,-1.0,3.0,212654.0
66572.87158203125,1406.0,4.0,9.0,212660.0
66586.21362304688,1407.0,9.0,13.0,212664.0
66599.5556640625,1408.0,11.0,15.0,212666.0
66612.8974609375,1409.0,11.0,13.0,212664.0
66626.23950195312,1410.0,9.0,8.0,212659.0
66639.58154296875,1411.0,6.0,3.0,212654.0
66652.92358398438,1412.0,3.0,0.0,212651.0
66666.265625,1413.0,1.0,0.0,212651.0
66679.60766601562,1414.0,2.0,3.0,212654.0
66692.94970703125,1415.0,6.0,8.0,212659.0
66706.29174804688,1416.0,10.0,14.0,212665.0
66719.6337890625,1417.0,12.0,18.0,212669.0
66732.9755859375,1418.0,13.0,18.0,212669.0
66746.31762695312,1419.0,13.0,17.0,212668.0
66759.65966796875,1420.0,12.0,16.0,212667.0
66773.00170898438,1421.0,12.0,18.0,212669.0
66786.34375,1422.0,13.0,19.0,212670.0
66799.68579101562,1423.0,13.0,19.0,212670.0
66813.02783203125,1424.0,9.0,15.0,212666.0
66826.36987304688,1425.0,-1.0,7.0,212658.0
66839.7119140625,1426.0,-16.0,-6.0,212645.0
66853.0537109375,1427.0,-33.0,-20.0,212631.0
66866.39575195312,1428.0,-48.0,-31.0,212620.0
66879.73779296875,1429.0,-60.0,-40.0,212611.0
66893.07983398438,1430.0,-67.0,-46.0,212605.0
66906.421875,1431.0,-71.0,-47.0,212604.0
66919.76391601562,1432.0,-69.0,-45.0,212606.0
66933.10595703125,1433.0,-64.0,-38.0,212613.0
66946.44799804688,1434.0,-57.0,-31.0,212620.0
66959.7900390625,1435.0,-50.0,-22.0,212629.0
66973.1318359375,1436.0,-42.0,-15.0,212636.0
66986.47387695312,1437.0,-34.0,-9.0,212642.0
66999.81591796875,1438.0,-28.0,-7.0,212644.0
67013.15795898438,1439.0,-21.0,-7.0,212644.0
67026.5,1440.0,-13.0,-7.0,212644.0
67039.84204101562,1441.0,-6.0,-8.0,212643.0
67053.18408203125,1442.0,-1.0,-9.0,212642.0
67066.52612304688,1443.0,0.0,-9.0,212642.0
67079.8681640625,1444.0,0.0,-9.0,212642.0
67093.2099609375,1445.0,-2.0,-10.0,212641.0
67106.55200195312,1446.0,-4.0,-11.0,212640.0
67119.89404296875,1447.0,-8.0,-12.0,212639.0
67133.23608398438,1448.0,-11.0,-12.0,212639.0
67146.578125,1449.0,-11.0,-12.0,212639.0
67159.92016601562,1450.0,-11.0,-12.0,212639.0
67173.26220703125,1451.0,-9.0,-10.0,212641.0
67186.60424804688,1452.0,-5.0,-7.0,212644.0
67199.9462890625,1453.0,0.0,-3.0,212648.0
67213.2880859375,1454.0,4.0,0.0,212651.0
67226.63012695312,1455.0,8.0,2.0,212653.0
67239.97216796875,1456.0,11.0,2.0,212653.0
67253.31420898438,1457.0,14.0,4.0,212655.0
67266.65625,1458.0,17.0,7.0,212658.0
67279.99829101562,1459.0,19.0,9.0,212660.0
67293.34033203125,1460.0,20.0,9.0,212660.0
67306.68237304688,1461.0,21.0,9.0,212660.0
67320.0244140625,1462.0,20.0,10.0,212661.0
67333.3662109375,1463.0,20.0,10.0,212661.0
67346.70825195312,1464.0,19.0,8.0,212659.0
67360.05029296875,1465.0,19.0,9.0,212660.0
67373.39233398438,1466.0,20.0,10.0,212661.0
67386.734375,1467.0,25.0,9.0,212660.0
67400.07641601562,1468.0,31.0,9.0,212660.0
67413.41845703125,1469.0,37.0,9.0,212660.0
67426.76049804688,1470.0,42.0,10.0,212661.0
67440.1025390625,1471.0,46.0,11.0,212662.0
67453.4443359375,1472.0,48.0,13.0,212664.0
67466.78637695312,1473.0,51.0,16.0,212667.0
67480.12841796875,1474.0,50.0,16.0,212667.0
67493.47045898438,1475.0,45.0,12.0,212663.0
67506.8125,1476.0,36.0,2.0,212653.0
67520.15454101562,1477.0,23.0,-12.0,212639.0
67533.49658203125,1478.0,9.0,-26.0,212625.0
67546.83862304688,1479.0,-4.0,-37.0,212614.0
67560.1806640625,1480.0,-16.0,-45.0,212606.0
67573.5224609375,1481.0,-26.0,-49.0,212602.0
67586.86450195312,1482.0,-29.0,-48.0,212603.0
67600.20654296875,1483.0,-30.0,-46.0,212605.0
67613.54858398438,1484.0,-27.0,-43.0,212608.0
67626.890625,1485.0,-21.0,-39.0,212612.0
67640.23266601562,1486.0,-14.0,-36.0,212615.0
67653.57470703125,1487.0,-6.0,-30.0,212621.0
67666.91674804688,1488.0,2.0,-24.0,212627.0
67680.2587890625,1489.0,9.0,-19.0,212632.0
67693.6005859375,1490.0,15.0,-15.0,212636.0
67706.94262695312,1491.0,17.0,-12.0,212639.0
67720.28466796875,1492.0,17.0,-10.0,212641.0
67733.62670898438,1493.0,17.0,-9.0,212642.0
67746.96875,1494.0,17.0,-8.0,212643.0
67760.31079101562,1495.0,19.0,-7.0,212644.0
67773.65283203125,1496.0,19.0,-5.0,212646.0
67786.99487304688,1497.0,17.0,-4.0,212647.0
67800.3369140625,1498.0,13.0,-2.0,212649.0
67813.6787109375,1499.0,8.0,-1.0,212650.0
67827.02075195312,1500.0,3.0,1.0,212652.0
67840.36279296875,1501.0,-1.0,1.0,212652.0
67853.70483398438,1502.0,-2.0,-1.0,212650.0
67867.046875,1503.0,-2.0,-1.0,212650.0
67880.38891601562,1504.0,-1.0,-1.0,212650.0
67893.73095703125,1505.0,3.0,-1.0,212650.0
67907.07299804688,1506.0,8.0,-2.0,212649.0
67920.4150390625,1507.0,13.0,-1.0,212650.0
67933.7568359375,1508.0,17.0,2.0,212653.0
67947.09887695312,1509.0,20.0,6.0,212657.0
67960.44091796875,1510.0,23.0,13.0,212664.0
67973.78295898438,1511.0,25.0,19.0,212670.0
67987.125,1512.0,29.0,25.0,212676.0
68000.46704101562,1513.0,33.0,30.0,212681.0
68013.80908203125,1514.0,34.0,30.0,212681.0
68027.15112304688,1515.0,35.0,28.0,212679.0
68040.4931640625,1516.0,35.0,26.0,212677.0
68053.8349609375,1517.0,33.0,24.0,212675.0
68067.17700195312,1518.0,31.0,25.0,212676.0
68080.51904296875,1519.0,28.0,26.0,212677.0
68093.86108398438,1520.0,27.0,25.0,212676.0
68107.203125,1521.0,27.0,24.0,212675.0
68120.54516601562,1522.0,25.0,23.0,212674.0
68133.88720703125,1523.0,24.0,23.0,212674.0
68147.22924804688,1524.0,22.0,20.0,212671.0
68160.5712890625,1525.0,15.0,16.0,212667.0
68173.9130859375,1526.0,3.0,7.0,212658.0
68187.25512695312,1527.0,-12.0,-5.0,212646.0
68200.59716796875,1528.0,-25.0,-17.0,212634.0
68213.93920898438,1529.0,-35.0,-26.0,212625.0
68227.28125,1530.0,-41.0,-34.0,212617.0
68240.62329101562,1531.0,-43.0,-39.0,212612.0
68253.96533203125,1532.0,-43.0,-42.0,212609.0
68267.30737304688,1533.0,-41.0,-40.0,212611.0
68280.6494140625,1534.0,-39.0,-36.0,212615.0
68293.9912109375,1535.0,-34.0,-28.0,212623.0
68307.33325195312,1536.0,-28.0,-20.0,212631.0
68320.67529296875,1537.0,-20.0,-13.0,212638.0
68334.01733398438,1538.0,-12.0,-7.0,212644.0
68347.359375,1539.0,-6.0,0.0,212651.0
68360.70141601562,1540.0,-2.0,3.0,212654.0
68374.04345703125,1541.0,0.0,2.0,212653.0
68387.38549804688,1542.0,3.0,1.0,212652.0
68400.7275390625,1543.0,5.0,-1.0,212650.0
68414.0693359375,1544.0,8.0,-1.0,212650.0
68427.41137695312,1545.0,11.0,1.0,212652.0
68440.75341796875,1546.0,13.0,4.0,212655.0
68454.09545898438,1547.0,14.0,9.0,212660.0
68467.4375,1548.0,13.0,14.0,212665.0
68480.77954101562,1549.0,11.0,17.0,212668.0
68494.12158203125,1550.0,8.0,18.0,212669.0
68507.46362304688,1551.0,7.0,16.0,212667.0
68520.8056640625,1552.0,8.0,13.0,212664.0
68534.1474609375,1553.0,9.0,10.0,212661.0
68547.48950195312,1554.0,10.0,9.0,212660.0
68560.83154296875,1555.0,12.0,9.0,212660.0
68574.17358398438,1556.0,14.0,9.0,212660.0
68587.515625,1557.0,19.0,8.0,212659.0
68600.85766601562,1558.0,23.0,7.0,212658.0
68614.19970703125,1559.0,26.0,7.0,212658.0
68627.54174804688,1560.0,29.0,9.0,212660.0
68640.8837890625,1561.0,30.0,12.0,212663.0
68654.2255859375,1562.0,31.0,14.0,212665.0
68667.56762695312,1563.0,32.0,13.0,212664.0
68680.90966796875,1564.0,32.0,11.0,212662.0
68694.25170898438,1565.0,33.0,9.0,212660.0
68707.59375,1566.0,33.0,5.0,212656.0
68720.93579101562,1567.0,34.0,2.0,212653.0
68734.27783203125,1568.0,35.0,1.0,212652.0
68747.61987304688,1569.0,36.0,1.0,212652.0
68760.9619140625,1570.0,37.0,2.0,212653.0
68774.3037109375,1571.0,36.0,3.0,212654.0
68787.64575195312,1572.0,36.0,2.0,212653.0
68800.98779296875,1573.0,34.0,0.0,212651.0
68814.32983398438,1574.0,31.0,-1.0,212650.0
68827.671875,1575.0,30.0,-2.0,212649.0
68841.01391601562,1576.0,26.0,-4.0,212647.0
68854.35595703125,1577.0,18.0,-9.0,212642.0
68867.69799804688,1578.0,4.0,-18.0,212633.0
68881.0400390625,1579.0,-13.0,-29.0,212622.0
68894.3818359375,1580.0,-29.0,-39.0,212612.0
68907.72387695312,1581.0,-42.0,-48.0,212603.0
68921.06591796875,1582.0,-50.0,-53.0,212598.0
68934.40795898438,1583.0,-53.0,-56.0,212595.0
68947.75,1584.0,-50.0,-54.0,212597.0
68961.09204101562,1585.0,-42.0,-50.0,212601.0
68974.43408203125,1586.0,-33.0,-46.0,212605.0
68987.77612304688,1587.0,-24.0,-42.0,212609.0
69001.1181640625,1588.0,-17.0,-38.0,212613.0
69014.4599609375,1589.0,-10.0,-32.0,212619.0
69027.80200195312,1590.0,-3.0,-26.0,212625.0
69041.14404296875,1591.0,2.0,-22.0,212629.0
69054.48608398438,1592.0,6.0,-19.0,212632.0
69067.828125,1593.0,6.0,-19.0,212632.0
69081.17016601562,1594.0,5.0,-19.0,212632.0
69094.51220703125,1595.0,5.0,-17.0,212634.0
69107.85424804688,1596.0,7.0,-11.0,212640.0
69121.1962890625,1597.0,10.0,-6.0,212645.0
69134.5380859375,1598.0,12.0,-1.0,212650.0
69147.88012695312,1599.0,12.0,3.0,212654.0
69161.22216796875,1600.0,10.0,5.0,212656.0
69174.56420898438,1601.0,6.0,6.0,212657.0
69187.90625,1602.0,4.0,7.0,212658.0
69201.24829101562,1603.0,4.0,8.0,212659.0
69214.59033203125,1604.0,4.0,6.0,212657.0
69227.93237304688,1605.0,6.0,6.0,212657.0
69241.2744140625,1606.0,9.0,4.0,212655.0
69254.6162109375,1607.0,13.0,2.0,212653.0
69267.95825195312,1608.0,16.0,0.0,212651.0
69281.30029296875,1609.0,20.0,1.0,212652.0
69294.64233398438,1610.0,23.0,4.0,212655.0
69307.984375,1611.0,24.0,8.0,212659.0
69321.32641601562,1612.0,24.0,10.0,212661.0
69334.66845703125,1613.0,24.0,10.0,212661.0
69348.01049804688,1614.0,24.0,9.0,212660.0
69361.3525390625,1615.0,28.0,7.0,212658.0
69374.6943359375,1616.0,32.0,7.0,212658.0
69388.03637695312,1617.0,33.0,8.0,212659.0
69401.37841796875,1618.0,33.0,10.0,212661.0
69414.72045898438,1619.0,34.0,11.0,212662.0
69428.0625,1620.0,34.0,14.0,212665.0
69441.40454101562,1621.0,35.0,18.0,212669.0
69454.74658203125,1622.0,37.0,20.0,212671.0
69468.08862304688,1623.0,41.0,22.0,212673.0
69481.4306640625,1624.0,43.0,23.0,212674.0
69494.7724609375,1625.0,43.0,24.0,212675.0
69508.11450195312,1626.0,43.0,25.0,212676.0
69521.45654296875,1627.0,41.0,23.0,212674.0
69534.79858398438,1628.0,38.0,19.0,212670.0
69548.140625,1629.0,28.0,12.0,212663.0
69561.48266601562,1630.0,11.0,1.0,212652.0
69574.82470703125,1631.0,-8.0,-12.0,212639.0
69588.16674804688,1632.0,-25.0,-24.0,212627.0
69601.5087890625,1633.0,-37.0,-35.0,212616.0
69614.8505859375,1634.0,-43.0,-41.0,212610.0
69628.19262695312,1635.0,-45.0,-45.0,212606.0
69641.53466796875,1636.0,-41.0,-44.0,212607.0
69654.87670898438,1637.0,-36.0,-41.0,212610.0
69668.21875,1638.0,-29.0,-35.0,212616.0
69681.56079101562,1639.0,-22.0,-30.0,212621.0
69694.90283203125,1640.0,-15.0,-23.0,212628.0
69708.24487304688,1641.0,-9.0,-18.0,212633.0
69721.5869140625,1642.0,-3.0,-14.0,212637.0
69734.9287109375,1643.0,2.0,-11.0,212640.0
69748.27075195312,1644.0,6.0,-9.0,212642.0
69761.61279296875,1645.0,7.0,-7.0,212644.0
69774.95483398438,1646.0,8.0,-5.0,212646.0
69788.296875,1647.0,10.0,-2.0,212649.0
69801.63891601562,1648.0,15.0,2.0,212653.0
69814.98095703125,1649.0,19.0,6.0,212657.0
69828.32299804688,1650.0,24.0,10.0,212661.0
69841.6650390625,1651.0,27.0,14.0,212665.0
69855.0068359375,1652.0,29.0,15.0,212666.0
69868.34887695312,1653.0,28.0,14.0,212665.0
69881.69091796875,1654.0,24.0,11.0,212662.0
69895.03295898438,1655.0,20.0,8.0,212659.0
69908.375,1656.0,18.0,5.0,212656.0
69921.71704101562,1657.0,16.0,2.0,212653.0
69935.05908203125,1658.0,15.0,2.0,212653.0
69948.40112304688,1659.0,15.0,2.0,212653.0
69961.7431640625,1660.0,19.0,2.0,212653.0
69975.0849609375,1661.0,25.0,3.0,212654.0
69988.42700195312,1662.0,31.0,8.0,212659.0
70001.76904296875,1663.0,35.0,14.0,212665.0
70015.11108398438,1664.0,38.0,20.0,212671.0
70028.453125,1665.0,40.0,26.0,212677.0
70041.79516601562,1666.0,41.0,30.0,212681.0
70055.13720703125,1667.0,41.0,30.0,212681.0
70068.47924804688,1668.0,41.0,27.0,212678.0
70081.8212890625,1669.0,41.0,22.0,212673.0
70095.1630859375,1670.0,40.0,16.0,212667.0
70108.50512695312,1671.0,39.0,12.0,212663.0
70121.84716796875,1672.0,38.0,8.0,212659.0
70135.18920898438,1673.0,38.0,6.0,212657.0
70148.53125,1674.0,37.0,6.0,212657.0
70161.87329101562,1675.0,38.0,8.0,212659.0
70175.21533203125,1676.0,36.0,11.0,212662.0
70188.55737304688,1677.0,34.0,13.0,212664.0
70201.8994140625,1678.0,30.0,14.0,212665.0
70215.2412109375,1679.0,22.0,11.0,212662.0
70228.58325195312,1680.0,11.0,4.0,212655.0
70241.92529296875,1681.0,-4.0,-7.0,212644.0
70255.26733398438,1682.0,-19.0,-18.0,212633.0
70268.609375,1683.0,-31.0,-28.0,212623.0
70281.95141601562,1684.0,-39.0,-36.0,212615.0
70295.29345703125,1685.0,-45.0,-41.0,212610.0
70308.63549804688,1686.0,-46.0,-44.0,212607.0
70321.9775390625,1687.0,-45.0,-42.0,212609.0
70335.3193359375,1688.0,-40.0,-38.0,212613.0
70348.66137695312,1689.0,-33.0,-32.0,212619.0
70362.00341796875,1690.0,-24.0,-27.0,212624.0
70375.34545898438,1691.0,-16.0,-23.0,212628.0
70388.6875,1692.0,-8.0,-18.0,212633.0
70402.02954101562,1693.0,-4.0,-13.0,212638.0
70415.37158203125,1694.0,-1.0,-8.0,212643.0
70428.71362304688,1695.0,1.0,-3.0,212648.0
70442.0556640625,1696.0,2.0,1.0,212652.0
70455.3974609375,1697.0,3.0,4.0,212655.0
70468.73950195312,1698.0,4.0,5.0,212656.0
70482.08154296875,1699.0,5.0,6.0,212657.0
70495.42358398438,1700.0,5.0,6.0,212657.0
70508.765625,1701.0,4.0,7.0,212658.0
70522.10766601562,1702.0,2.0,8.0,212659.0
70535.44970703125,1703.0,-1.0,8.0,212659.0
70548.79174804688,1704.0,-3.0,8.0,212659.0
70562.1337890625,1705.0,-4.0,7.0,212658.0
70575.4755859375,1706.0,-3.0,6.0,212657.0
70588.81762695312,1707.0,0.0,6.0,212657.0
70602.15966796875,1708.0,6.0,4.0,212655.0
70615.50170898438,1709.0,12.0,4.0,212655.0
70628.84375,1710.0,17.0,5.0,212656.0
70642.18579101562,1711.0,20.0,8.0,212659.0
70655.52783203125,1712.0,21.0,11.0,212662.0
70668.86987304688,1713.0,21.0,14.0,212665.0
70682.2119140625,1714.0,21.0,16.0,212667.0
70695.5537109375,1715.0,22.0,18.0,212669.0
70708.89575195312,1716.0,22.0,19.0,212670.0
70722.23779296875,1717.0,25.0,20.0,212671.0
70735.57983398438,1718.0,27.0,21.0,212672.0
70748.921875,1719.0,29.0,22.0,212673.0
70762.26391601562,1720.0,31.0,20.0,212671.0
70775.60595703125,1721.0,34.0,18.0,212669.0
70788.94799804688,1722.0,35.0,16.0,212667.0
70802.2900390625,1723.0,34.0,13.0,212664.0
70815.6318359375,1724.0,34.0,10.0,212661.0
70828.97387695312,1725.0,33.0,9.0,212660.0
70842.31591796875,1726.0,32.0,9.0,212660.0
70855.65795898438,1727.0,28.0,7.0,212658.0
70869.0,1728.0,18.0,2.0,212653.0
70882.34204101562,1729.0,5.0,-8.0,212643.0
70895.68408203125,1730.0,-9.0,-20.0,212631.0
70909.02612304688,1731.0,-23.0,-29.0,212622.0
70922.3681640625,1732.0,-34.0,-36.0,212615.0
70935.7099609375,1733.0,-39.0,-39.0,212612.0
70949.05200195312,1734.0,-41.0,-38.0,212613.0
70962.39404296875,1735.0,-38.0,-35.0,212616.0
70975.73608398438,1736.0,-34.0,-28.0,212623.0
70989.078125,1737.0,-28.0,-22.0,212629.0
71002.42016601562,1738.0,-22.0,-15.0,212636.0
71015.76220703125,1739.0,-17.0,-10.0,212641.0
71029.10424804688,1740.0,-11.0,-7.0,212644.0
71042.4462890625,1741.0,-5.0,-8.0,212643.0
71055.7880859375,1742.0,-1.0,-9.0,212642.0
71069.13012695312,1743.0,2.0,-10.0,212641.0
71082.47216796875,1744.0,3.0,-11.0,212640.0
71095.81420898438,1745.0,2.0,-11.0,212640.0
71109.15625,1746.0,1.0,-10.0,212641.0
71122.49829101562,1747.0,1.0,-8.0,212643.0
71135.84033203125,1748.0,2.0,-6.0,212645.0
71149.18237304688,1749.0,4.0,-1.0,212650.0
71162.5244140625,1750.0,6.0,1.0,212652.0
71175.8662109375,1751.0,5.0,1.0,212652.0
71189.20825195312,1752.0,5.0,-1.0,212650.0
71202.55029296875,1753.0,5.0,-3.0,212648.0
71215.89233398438,1754.0,5.0,-3.0,212648.0
71229.234375,1755.0,5.0,-2.0,212649.0
71242.57641601562,1756.0,6.0,0.0,212651.0
71255.91845703125,1757.0,6.0,2.0,212653.0
71269.26049804688,1758.0,6.0,3.0,212654.0
71282.6025390625,1759.0,9.0,5.0,212656.0
71295.9443359375,1760.0,13.0,8.0,212659.0
71309.28637695312,1761.0,17.0,11.0,212662.0
71322.62841796875,1762.0,19.0,10.0,212661.0
71335.97045898438,1763.0,20.0,8.0,212659.0
71349.3125,1764.0,21.0,4.0,212655.0
71362.65454101562,1765.0,22.0,1.0,212652.0
71375.99658203125,1766.0,23.0,-1.0,212650.0
71389.33862304688,1767.0,22.0,2.0,212653.0
71402.6806640625,1768.0,22.0,8.0,212659.0
71416.0224609375,1769.0,24.0,13.0,212664.0
71429.36450195312,1770.0,26.0,17.0,212668.0
71442.70654296875,1771.0,28.0,21.0,212672.0
71456.04858398438,1772.0,30.0,22.0,212673.0
71469.390625,1773.0,33.0,24.0,212675.0
71482.73266601562,1774.0,35.0,25.0,212676.0
71496.07470703125,1775.0,37.0,24.0,212675.0
71509.41674804688,1776.0,34.0,21.0,212672.0
71522.7587890625,1777.0,25.0,14.0,212665.0
71536.1005859375,1778.0,11.0,4.0,212655.0
71549.44262695312,1779.0,-8.0,-8.0,212643.0
71562.78466796875,1780.0,-28.0,-20.0,212631.0
71576.12670898438,1781.0,-44.0,-29.0,212622.0
71589.46875,1782.0,-55.0,-33.0,212618.0
71602.81079101562,1783.0,-60.0,-33.0,212618.0
71616.15283203125,1784.0,-59.0,-29.0,212622.0
71629.49487304688,1785.0,-53.0,-21.0,212630.0
71642.8369140625,1786.0,-47.0,-13.0,212638.0
71656.1787109375,1787.0,-39.0,-5.0,212646.0
71669.52075195312,1788.0,-32.0,2.0,212653.0
71682.86279296875,1789.0,-26.0,7.0,212658.0
71696.20483398438,1790.0,-20.0,9.0,212660.0
71709.546875,1791.0,-16.0,8.0,212659.0
71722.88891601562,1792.0,-13.0,4.0,212655.0
71736.23095703125,1793.0,-11.0,1.0,212652.0
71749.57299804688,1794.0,-10.0,-1.0,212650.0
71762.9150390625,1795.0,-9.0,-1.0,212650.0
71776.2568359375,1796.0,-6.0,0.0,212651.0
71789.59887695312,1797.0,-3.0,2.0,212653.0
71802.94091796875,1798.0,-1.0,4.0,212655.0
71816.28295898438,1799.0,0.0,6.0,212657.0
71829.625,1800.0,-1.0,6.0,212657.0
71842.96704101562,1801.0,-1.0,6.0,212657.0
71856.30908203125,1802.0,-4.0,7.0,212658.0
71869.65112304688,1803.0,-6.0,8.0,212659.0
71882.9931640625,1804.0,-6.0,9.0,212660.0
71896.3349609375,1805.0,-5.0,10.0,212661.0
71909.67700195312,1806.0,-2.0,13.0,212664.0
71923.01904296875,1807.0,1.0,16.0,212667.0
71936.36108398438,1808.0,4.0,18.0,212669.0
71949.703125,1809.0,6.0,19.0,212670.0
71963.04516601562,1810.0,9.0,20.0,212671.0
71976.38720703125,1811.0,11.0,19.0,212670.0
71989.72924804688,1812.0,12.0,20.0,212671.0
72003.0712890625,1813.0,12.0,21.0,212672.0
72016.4130859375,1814.0,10.0,22.0,212673.0
72029.75512695312,1815.0,8.0,23.0,212674.0
72043.09716796875,1816.0,6.0,24.0,212675.0
72056.43920898438,1817.0,4.0,24.0,212675.0
72069.78125,1818.0,4.0,25.0,212676.0
72083.12329101562,1819.0,4.0,26.0,212677.0
72096.46533203125,1820.0,6.0,28.0,212679.0
72109.80737304688,1821.0,9.0,30.0,212681.0
72123.1494140625,1822.0,12.0,30.0,212681.0
72136.4912109375,1823.0,16.0,31.0,212682.0
72149.83325195312,1824.0,20.0,31.0,212682.0
72163.17529296875,1825.0,21.0,28.0,212679.0
72176.51733398438,1826.0,15.0,22.0,212673.0
72189.859375,1827.0,4.0,12.0,212663.0
72203.20141601562,1828.0,-11.0,0.0,212651.0
72216.54345703125,1829.0,-26.0,-10.0,212641.0
72229.88549804688,1830.0,-38.0,-18.0,212633.0
72243.2275390625,1831.0,-48.0,-24.0,212627.0
72256.5693359375,1832.0,-52.0,-27.0,212624.0
72269.91137695312,1833.0,-52.0,-25.0,212626.0
72283.25341796875,1834.0,-47.0,-20.0,212631.0
72296.59545898438,1835.0,-40.0,-14.0,212637.0
72309.9375,1836.0,-30.0,-7.0,212644.0
72323.27954101562,1837.0,-21.0,0.0,212651.0
72336.62158203125,1838.0,-13.0,7.0,212658.0
72349.96362304688,1839.0,-5.0,12.0,212663.0
72363.3056640625,1840.0,-1.0,15.0,212666.0
72376.6474609375,1841.0,1.0,16.0,212667.0
72389.98950195312,1842.0,2.0,16.0,212667.0
72403.33154296875,1843.0,4.0,14.0,212665.0
72416.67358398438,1844.0,6.0,13.0,212664.0
72430.015625,1845.0,10.0,14.0,212665.0
72443.35766601562,1846.0,14.0,16.0,212667.0
72456.69970703125,1847.0,17.0,17.0,212668.0
72470.04174804688,1848.0,18.0,17.0,212668.0
72483.3837890625,1849.0,17.0,16.0,212667.0
72496.7255859375,1850.0,16.0,14.0,212665.0
72510.06762695312,1851.0,15.0,14.0,212665.0
72523.40966796875,1852.0,13.0,13.0,212664.0
72536.75170898438,1853.0,11.0,13.0,212664.0
72550.09375,1854.0,9.0,12.0,212663.0
72563.43579101562,1855.0,8.0,12.0,212663.0
72576.77783203125,1856.0,6.0,10.0,212661.0
72590.11987304688,1857.0,4.0,10.0,212661.0
72603.4619140625,1858.0,4.0,10.0,212661.0
72616.8037109375,1859.0,6.0,10.0,212661.0
72630.14575195312,1860.0,9.0,11.0,212662.0
72643.48779296875,1861.0,13.0,14.0,212665.0
72656.82983398438,1862.0,17.0,16.0,212667.0
72670.171875,1863.0,20.0,17.0,212668.0
72683.51391601562,1864.0,22.0,16.0,212667.0
72696.85595703125,1865.0,24.0,15.0,212666.0
72710.19799804688,1866.0,26.0,15.0,212666.0
72723.5400390625,1867.0,29.0,17.0,212668.0
72736.8818359375,1868.0,33.0,18.0,212669.0
72750.22387695312,1869.0,38.0,18.0,212669.0
72763.56591796875,1870.0,42.0,18.0,212669.0
72776.90795898438,1871.0,44.0,17.0,212668.0
72790.25,1872.0,43.0,15.0,212666.0
72803.59204101562,1873.0,41.0,13.0,212664.0
72816.93408203125,1874.0,35.0,13.0,212664.0
72830.27612304688,1875.0,28.0,11.0,212662.0
72843.6181640625,1876.0,17.0,8.0,212659.0
72856.9599609375,1877.0,2.0,2.0,212653.0
72870.30200195312,1878.0,-14.0,-8.0,212643.0
72883.64404296875,1879.0,-30.0,-20.0,212631.0
72896.98608398438,1880.0,-41.0,-32.0,212619.0
72910.328125,1881.0,-49.0,-40.0,212611.0
72923.67016601562,1882.0,-52.0,-43.0,212608.0
72937.01220703125,1883.0,-51.0,-40.0,212611.0
72950.35424804688,1884.0,-46.0,-36.0,212615.0
72963.6962890625,1885.0,-39.0,-29.0,212622.0
72977.0380859375,1886.0,-34.0,-22.0,212629.0
72990.38012695312,1887.0,-29.0,-16.0,212635.0
73003.72216796875,1888.0,-22.0,-11.0,212640.0
73017.06420898438,1889.0,-15.0,-9.0,212642.0
73030.40625,1890.0,-10.0,-9.0,212642.0
73043.74829101562,1891.0,-5.0,-10.0,212641.0
73057.09033203125,1892.0,-2.0,-9.0,212642.0
73070.43237304688,1893.0,0.0,-7.0,212644.0
73083.7744140625,1894.0,2.0,-4.0,212647.0
73097.1162109375,1895.0,4.0,-3.0,212648.0
73110.45825195312,1896.0,6.0,-1.0,212650.0
73123.80029296875,1897.0,9.0,1.0,212652.0
73137.14233398438,1898.0,12.0,4.0,212655.0
73150.484375,1899.0,15.0,6.0,212657.0
73163.82641601562,1900.0,15.0,6.0,212657.0
73177.16845703125,1901.0,13.0,5.0,212656.0
73190.51049804688,1902.0,9.0,4.0,212655.0
73203.8525390625,1903.0,3.0,4.0,212655.0
73217.1943359375,1904.0,1.0,5.0,212656.0
73230.53637695312,1905.0,1.0,9.0,212660.0
73243.87841796875,1906.0,3.0,13.0,212664.0
73257.22045898438,1907.0,6.0,15.0,212666.0
73270.5625,1908.0,10.0,16.0,212667.0
73283.90454101562,1909.0,12.0,15.0,212666.0
73297.24658203125,1910.0,15.0,12.0,212663.0
73310.58862304688,1911.0,16.0,10.0,212661.0
73323.9306640625,1912.0,17.0,9.0,212660.0
73337.2724609375,1913.0,16.0,9.0,212660.0
73350.61450195312,1914.0,18.0,10.0,212661.0
73363.95654296875,1915.0,21.0,13.0,212664.0
73377.29858398438,1916.0,25.0,15.0,212666.0
73390.640625,1917.0,29.0,18.0,212669.0
73403.98266601562,1918.0,33.0,21.0,212672.0
73417.32470703125,1919.0,37.0,22.0,212673.0
73430.66674804688,1920.0,41.0,23.0,212674.0
73444.0087890625,1921.0,44.0,23.0,212674.0
73457.3505859375,1922.0,44.0,25.0,212676.0
73470.69262695312,1923.0,41.0,26.0,212677.0
73484.03466796875,1924.0,30.0,20.0,212671.0
73497.37670898438,1925.0,14.0,11.0,212662.0
73510.71875,1926.0,-4.0,-1.0,212650.0
73524.06079101562,1927.0,-21.0,-10.0,212641.0
73537.40283203125,1928.0,-33.0,-17.0,212634.0
73550.74487304688,1929.0,-38.0,-19.0,212632.0
73564.0869140625,1930.0,-40.0,-19.0,212632.0
73577.4287109375,1931.0,-36.0,-17.0,212634.0
73590.77075195312,1932.0,-29.0,-14.0,212637.0
73604.11279296875,1933.0,-21.0,-11.0,212640.0
73617.45483398438,1934.0,-12.0,-7.0,212644.0
73630.796875,1935.0,-5.0,-3.0,212648.0
73644.13891601562,1936.0,-1.0,-2.0,212649.0
73657.48095703125,1937.0,3.0,-1.0,212650.0
73670.82299804688,1938.0,5.0,-1.0,212650.0
73684.1650390625,1939.0,6.0,-2.0,212649.0
73697.5068359375,1940.0,7.0,-4.0,212647.0
73710.84887695312,1941.0,9.0,-5.0,212646.0
73724.19091796875,1942.0,13.0,-4.0,212647.0
73737.53295898438,1943.0,18.0,-1.0,212650.0
73750.875,1944.0,24.0,4.0,212655.0
73764.21704101562,1945.0,28.0,8.0,212659.0
73777.55908203125,1946.0,28.0,11.0,212662.0
73790.90112304688,1947.0,25.0,13.0,212664.0
73804.2431640625,1948.0,22.0,12.0,212663.0
73817.5849609375,1949.0,19.0,10.0,212661.0
73830.92700195312,1950.0,17.0,8.0,212659.0
73844.26904296875,1951.0,17.0,6.0,212657.0
73857.61108398438,1952.0,17.0,5.0,212656.0
73870.953125,1953.0,18.0,6.0,212657.0
73884.29516601562,1954.0,20.0,6.0,212657.0
73897.63720703125,1955.0,22.0,7.0,212658.0
73910.97924804688,1956.0,26.0,9.0,212660.0
73924.3212890625,1957.0,29.0,12.0,212663.0
73937.6630859375,1958.0,33.0,16.0,212667.0
73951.00512695312,1959.0,35.0,18.0,212669.0
73964.34716796875,1960.0,37.0,23.0,212674.0
73977.68920898438,1961.0,37.0,28.0,212679.0
73991.03125,1962.0,37.0,32.0,212683.0
74004.37329101562,1963.0,37.0,33.0,212684.0
74017.71533203125,1964.0,36.0,32.0,212683.0
74031.05737304688,1965.0,36.0,30.0,212681.0
74044.3994140625,1966.0,34.0,30.0,212681.0
74057.7412109375,1967.0,31.0,29.0,212680.0
74071.08325195312,1968.0,27.0,28.0,212679.0
74084.42529296875,1969.0,22.0,27.0,212678.0
74097.76733398438,1970.0,19.0,25.0,212676.0
74111.109375,1971.0,14.0,22.0,212673.0
74124.45141601562,1972.0,8.0,15.0,212666.0
74137.79345703125,1973.0,-4.0,7.0,212658.0
74151.13549804688,1974.0,-18.0,-3.0,212648.0
74164.4775390625,1975.0,-35.0,-13.0,212638.0
74177.8193359375,1976.0,-50.0,-23.0,212628.0
74191.16137695312,1977.0,-60.0,-30.0,212621.0
74204.50341796875,1978.0,-67.0,-32.0,212619.0
74217.84545898438,1979.0,-68.0,-31.0,212620.0
74231.1875,1980.0,-65.0,-27.0,212624.0
74244.52954101562,1981.0,-58.0,-22.0,212629.0
74257.87158203125,1982.0,-50.0,-17.0,212634.0
74271.21362304688,1983.0,-44.0,-12.0,212639.0
74284.5556640625,1984.0,-38.0,-6.0,212645.0
74297.8974609375,1985.0,-33.0,-3.0,212648.0
74311.23950195312,1986.0,-28.0,0.0,212651.0
74324.58154296875,1987.0,-22.0,0.0,212651.0
74337.92358398438,1988.0,-17.0,1.0,212652.0
74351.265625,1989.0,-13.0,3.0,212654.0
74364.60766601562,1990.0,-10.0,5.0,212656.0
74377.94970703125,1991.0,-7.0,6.0,212657.0
74391.29174804688,1992.0,-5.0,5.0,212656.0
74404.6337890625,1993.0,-5.0,2.0,212653.0
74417.9755859375,1994.0,-5.0,-1.0,212650.0
74431.31762695312,1995.0,-5.0,-3.0,212648.0
74444.65966796875,1996.0,-6.0,-5.0,212646.0
74458.00170898438,1997.0,-7.0,-9.0,212642.0
74471.34375,1998.0,-8.0,-13.0,212638.0
74484.68579101562,1999.0,-8.0,-16.0,212635.0
74498.02783203125,2000.0,-11.0,-18.0,212633.0
74511.36987304688,2001.0,-15.0,-19.0,212632.0
74524.7119140625,2002.0,-17.0,-19.0,212632.0
74538.0537109375,2003.0,-19.0,-16.0,212635.0
74551.39575195312,2004.0,-20.0,-15.0,212636.0
74564.73779296875,2005.0,-21.0,-15.0,212636.0
74578.07983398438,2006.0,-23.0,-13.0,212638.0
74591.421875,2007.0,-23.0,-11.0,212640.0
74604.76391601562,2008.0,-21.0,-5.0,212646.0
74618.10595703125,2009.0,-16.0,0.0,212651.0
74631.44799804688,2010.0,-10.0,6.0,212657.0
74644.7900390625,2011.0,-3.0,11.0,212662.0
74658.1318359375,2012.0,0.0,12.0,212663.0
74671.47387695312,2013.0,1.0,12.0,212663.0
74684.81591796875,2014.0,2.0,12.0,212663.0
74698.15795898438,2015.0,4.0,11.0,212662.0
74711.5,2016.0,6.0,10.0,212661.0
74724.84204101562,2017.0,8.0,11.0,212662.0
74738.18408203125,2018.0,9.0,12.0,212663.0
74751.52612304688,2019.0,11.0,13.0,212664.0
74764.8681640625,2020.0,13.0,15.0,212666.0
74778.2099609375,2021.0,13.0,16.0,212667.0
74791.55200195312,2022.0,10.0,15.0,212666.0
74804.89404296875,2023.0,2.0,10.0,212661.0
74818.23608398438,2024.0,-9.0,1.0,212652.0
74831.578125,2025.0,-21.0,-10.0,212641.0
74844.92016601562,2026.0,-30.0,-21.0,212630.0
74858.26220703125,2027.0,-36.0,-30.0,212621.0
74871.60424804688,2028.0,-39.0,-38.0,212613.0
74884.9462890625,2029.0,-39.0,-43.0,212608.0
74898.2880859375,2030.0,-34.0,-46.0,212605.0
74911.63012695312,2031.0,-30.0,-44.0,212607.0
74924.97216796875,2032.0,-23.0,-40.0,212611.0
74938.31420898438,2033.0,-17.0,-36.0,212615.0
74951.65625,2034.0,-11.0,-31.0,212620.0
74964.99829101562,2035.0,-6.0,-25.0,212626.0
74978.34033203125,2036.0,-3.0,-21.0,212630.0
74991.68237304688,2037.0,-1.0,-16.0,212635.0
75005.0244140625,2038.0,-1.0,-10.0,212641.0
75018.3662109375,2039.0,0.0,-8.0,212643.0
75031.70825195312,2040.0,1.0,-7.0,212644.0
75045.05029296875,2041.0,3.0,-6.0,212645.0
75058.39233398438,2042.0,4.0,-4.0,212647.0
75071.734375,2043.0,2.0,1.0,212652.0
75085.07641601562,2044.0,-1.0,5.0,212656.0
75098.41845703125,2045.0,-6.0,6.0,212657.0
75111.76049804688,2046.0,-11.0,5.0,212656.0
75125.1025390625,2047.0,-17.0,3.0,212654.0
75138.4443359375,2048.0,-21.0,-1.0,212650.0
75151.78637695312,2049.0,-25.0,-5.0,212646.0
75165.12841796875,2050.0,-27.0,-9.0,212642.0
75178.47045898438,2051.0,-25.0,-13.0,212638.0
75191.8125,2052.0,-22.0,-15.0,212636.0
75205.15454101562,2053.0,-18.0,-15.0,212636.0
75218.49658203125,2054.0,-14.0,-13.0,212638.0
75231.83862304688,2055.0,-8.0,-10.0,212641.0
75245.1806640625,2056.0,-3.0,-7.0,212644.0
75258.5224609375,2057.0,2.0,-4.0,212647.0
75271.86450195312,2058.0,5.0,-1.0,212650.0
75285.20654296875,2059.0,7.0,3.0,212654.0
75298.54858398438,2060.0,8.0,5.0,212656.0
75311.890625,2061.0,9.0,8.0,212659.0
75325.23266601562,2062.0,11.0,10.0,212661.0
75338.57470703125,2063.0,13.0,12.0,212663.0
75351.91674804688,2064.0,14.0,14.0,212665.0
75365.2587890625,2065.0,16.0,14.0,212665.0
75378.6005859375,2066.0,20.0,14.0,212665.0
75391.94262695312,2067.0,22.0,13.0,212664.0
75405.28466796875,2068.0,25.0,13.0,212664.0
75418.62670898438,2069.0,28.0,13.0,212664.0
75431.96875,2070.0,31.0,15.0,212666.0
75445.31079101562,2071.0,32.0,16.0,212667.0
75458.65283203125,2072.0,32.0,19.0,212670.0
75471.99487304688,2073.0,30.0,20.0,212671.0
75485.3369140625,2074.0,24.0,18.0,212669.0
75498.6787109375,2075.0,16.0,12.0,212663.0
75512.02075195312,2076.0,2.0,0.0,212651.0
75525.36279296875,2077.0,-14.0,-13.0,212638.0
75538.70483398438,2078.0,-30.0,-23.0,212628.0
75552.046875,2079.0,-44.0,-32.0,212619.0
75565.38891601562,2080.0,-53.0,-37.0,212614.0
75578.73095703125,2081.0,-57.0,-38.0,212613.0
75592.07299804688,2082.0,-56.0,-37.0,212614.0
75605.4150390625,2083.0,-52.0,-33.0,212618.0
75618.7568359375,2084.0,-47.0,-29.0,212622.0
75632.09887695312,2085.0,-39.0,-25.0,212626.0
75645.44091796875,2086.0,-31.0,-22.0,212629.0
75658.78295898438,2087.0,-22.0,-20.0,212631.0
75672.125,2088.0,-16.0,-18.0,212633.0
75685.46704101562,2089.0,-12.0,-16.0,212635.0
75698.80908203125,2090.0,-10.0,-11.0,212640.0
75712.15112304688,2091.0,-9.0,-9.0,212642.0
75725.4931640625,2092.0,-9.0,-7.0,212644.0
75738.8349609375,2093.0,-9.0,-7.0,212644.0
75752.17700195312,2094.0,-7.0,-7.0,212644.0
75765.51904296875,2095.0,-6.0,-7.0,212644.0
75778.86108398438,2096.0,-5.0,-6.0,212645.0
75792.203125,2097.0,-5.0,-5.0,212646.0
75805.54516601562,2098.0,-6.0,-5.0,212646.0
75818.88720703125,2099.0,-8.0,-4.0,212647.0
75832.22924804688,2100.0,-11.0,-2.0,212649.0
75845.5712890625,2101.0,-14.0,-1.0,212650.0
75858.9130859375,2102.0,-14.0,-1.0,212650.0
75872.25512695312,2103.0,-15.0,-1.0,212650.0
75885.59716796875,2104.0,-13.0,0.0,212651.0
75898.93920898438,2105.0,-9.0,0.0,212651.0
75912.28125,2106.0,-5.0,0.0,212651.0
75925.62329101562,2107.0,-1.0,1.0,212652.0
75938.96533203125,2108.0,3.0,4.0,212655.0
75952.30737304688,2109.0,7.0,7.0,212658.0
75965.6494140625,2110.0,10.0,10.0,212661.0
75978.9912109375,2111.0,12.0,13.0,212664.0
75992.33325195312,2112.0,16.0,15.0,212666.0
76005.67529296875,2113.0,20.0,17.0,212668.0
76019.01733398438,2114.0,20.0,18.0,212669.0
76032.359375,2115.0,21.0,19.0,212670.0
76045.70141601562,2116.0,21.0,20.0,212671.0
76059.04345703125,2117.0,21.0,22.0,212673.0
76072.38549804688,2118.0,21.0,23.0,212674.0
76085.7275390625,2119.0,22.0,23.0,212674.0
76099.0693359375,2120.0,23.0,19.0,212670.0
76112.41137695312,2121.0,24.0,15.0,212666.0
76125.75341796875,2122.0,23.0,13.0,212664.0
76139.09545898438,2123.0,22.0,13.0,212664.0
76152.4375,2124.0,21.0,14.0,212665.0
76165.77954101562,2125.0,18.0,14.0,212665.0
76179.12158203125,2126.0,12.0,12.0,212663.0
76192.46362304688,2127.0,1.0,5.0,212656.0
76205.8056640625,2128.0,-13.0,-5.0,212646.0
76219.1474609375,2129.0,-27.0,-15.0,212636.0
76232.48950195312,2130.0,-39.0,-23.0,212628.0
76245.83154296875,2131.0,-47.0,-28.0,212623.0
76259.17358398438,2132.0,-50.0,-30.0,212621.0
76272.515625,2133.0,-52.0,-29.0,212622.0
76285.85766601562,2134.0,-50.0,-26.0,212625.0
76299.19970703125,2135.0,-45.0,-23.0,212628.0
76312.54174804688,2136.0,-42.0,-18.0,212633.0
76325.8837890625,2137.0,-36.0,-13.0,212638.0
76339.2255859375,2138.0,-28.0,-8.0,212643.0
76352.56762695312,2139.0,-20.0,-5.0,212646.0
76365.90966796875,2140.0,-13.0,-3.0,212648.0
76379.25170898438,2141.0,-8.0,-1.0,212650.0
76392.59375,2142.0,-4.0,2.0,212653.0
76405.93579101562,2143.0,-1.0,4.0,212655.0
76419.27783203125,2144.0,0.0,5.0,212656.0
76432.61987304688,2145.0,2.0,4.0,212655.0
76445.9619140625,2146.0,4.0,3.0,212654.0
76459.3037109375,2147.0,6.0,2.0,212653.0
76472.64575195312,2148.0,7.0,2.0,212653.0
76485.98779296875,2149.0,7.0,-1.0,212650.0
76499.32983398438,2150.0,6.0,-4.0,212647.0
76512.671875,2151.0,4.0,-8.0,212643.0
76526.01391601562,2152.0,2.0,-10.0,212641.0
76539.35595703125,2153.0,1.0,-13.0,212638.0
76552.69799804688,2154.0,1.0,-14.0,212637.0
76566.0400390625,2155.0,1.0,-13.0,212638.0
76579.3818359375,2156.0,3.0,-12.0,212639.0
76592.72387695312,2157.0,6.0,-10.0,212641.0
76606.06591796875,2158.0,10.0,-8.0,212643.0
76619.40795898438,2159.0,14.0,-5.0,212646.0
76632.75,2160.0,19.0,-3.0,212648.0
76646.09204101562,2161.0,22.0,-1.0,212650.0
76659.43408203125,2162.0,23.0,1.0,212652.0
76672.77612304688,2163.0,22.0,2.0,212653.0
76686.1181640625,2164.0,21.0,2.0,212653.0
76699.4599609375,2165.0,20.0,2.0,212653.0
76712.80200195312,2166.0,20.0,3.0,212654.0
76726.14404296875,2167.0,22.0,2.0,212653.0
76739.48608398438,2168.0,23.0,2.0,212653.0
76752.828125,2169.0,25.0,1.0,212652.0
76766.17016601562,2170.0,28.0,0.0,212651.0
76779.51220703125,2171.0,30.0,1.0,212652.0
76792.85424804688,2172.0,32.0,4.0,212655.0
76806.1962890625,2173.0,33.0,9.0,212660.0
76819.5380859375,2174.0,33.0,14.0,212665.0
76832.88012695312,2175.0,33.0,17.0,212668.0
76846.22216796875,2176.0,30.0,18.0,212669.0
76859.56420898438,2177.0,22.0,14.0,212665.0
76872.90625,2178.0,9.0,6.0,212657.0
76886.24829101562,2179.0,-8.0,-4.0,212647.0
76899.59033203125,2180.0,-27.0,-14.0,212637.0
76912.93237304688,2181.0,-43.0,-23.0,212628.0
76926.2744140625,2182.0,-53.0,-30.0,212621.0
76939.6162109375,2183.0,-59.0,-33.0,212618.0
76952.95825195312,2184.0,-58.0,-36.0,212615.0
76966.30029296875,2185.0,-54.0,-38.0,212613.0
76979.64233398438,2186.0,-46.0,-38.0,212613.0
76992.984375,2187.0,-36.0,-35.0,212616.0
77006.32641601562,2188.0,-27.0,-28.0,212623.0
77019.66845703125,2189.0,-20.0,-22.0,212629.0
77033.01049804688,2190.0,-17.0,-16.0,212635.0
77046.3525390625,2191.0,-14.0,-11.0,212640.0
77059.6943359375,2192.0,-10.0,-9.0,212642.0
77073.03637695312,2193.0,-7.0,-8.0,212643.0
77086.37841796875,2194.0,-4.0,-6.0,212645.0
77099.72045898438,2195.0,-2.0,-4.0,212647.0
77113.0625,2196.0,-1.0,-2.0,212649.0
77126.40454101562,2197.0,1.0,0.0,212651.0
77139.74658203125,2198.0,3.0,2.0,212653.0
77153.08862304688,2199.0,5.0,2.0,212653.0
77166.4306640625,2200.0,7.0,2.0,212653.0
77179.7724609375,2201.0,8.0,2.0,212653.0
77193.11450195312,2202.0,7.0,2.0,212653.0
77206.45654296875,2203.0,4.0,3.0,212654.0
77219.79858398438,2204.0,-2.0,5.0,212656.0
77233.140625,2205.0,-9.0,7.0,212658.0
77246.48266601562,2206.0,-12.0,8.0,212659.0
77259.82470703125,2207.0,-9.0,8.0,212659.0
77273.16674804688,2208.0,-4.0,7.0,212658.0
77286.5087890625,2209.0,2.0,7.0,212658.0
77299.8505859375,2210.0,9.0,8.0,212659.0
77313.19262695312,2211.0,13.0,10.0,212661.0
77326.53466796875,2212.0,14.0,15.0,212666.0
77339.87670898438,2213.0,14.0,21.0,212672.0
77353.21875,2214.0,15.0,27.0,212678.0
77366.56079101562,2215.0,16.0,33.0,212684.0
77379.90283203125,2216.0,18.0,37.0,212688.0
77393.24487304688,2217.0,19.0,40.0,212691.0
77406.5869140625,2218.0,18.0,39.0,212690.0
77419.9287109375,2219.0,17.0,37.0,212688.0
77433.27075195312,2220.0,16.0,34.0,212685.0
77446.61279296875,2221.0,16.0,31.0,212682.0
77459.95483398438,2222.0,17.0,29.0,212680.0
77473.296875,2223.0,19.0,27.0,212678.0
77486.63891601562,2224.0,21.0,27.0,212678.0
77499.98095703125,2225.0,24.0,27.0,212678.0
77513.32299804688,2226.0,25.0,24.0,212675.0
77526.6650390625,2227.0,23.0,23.0,212674.0
77540.0068359375,2228.0,22.0,22.0,212673.0
77553.34887695312,2229.0,21.0,20.0,212671.0
77566.69091796875,2230.0,17.0,14.0,212665.0
77580.03295898438,2231.0,6.0,5.0,212656.0
77593.375,2232.0,-9.0,-6.0,212645.0
77606.71704101562,2233.0,-24.0,-18.0,212633.0
77620.05908203125,2234.0,-38.0,-28.0,212623.0
77633.40112304688,2235.0,-48.0,-37.0,212614.0
77646.7431640625,2236.0,-52.0,-41.0,212610.0
77660.0849609375,2237.0,-50.0,-39.0,212612.0
77673.42700195312,2238.0,-44.0,-33.0,212618.0
77686.76904296875,2239.0,-36.0,-25.0,212626.0
77700.11108398438,2240.0,-28.0,-19.0,212632.0
77713.453125,2241.0,-23.0,-14.0,212637.0
77726.79516601562,2242.0,-19.0,-8.0,212643.0
77740.13720703125,2243.0,-16.0,-3.0,212648.0
77753.47924804688,2244.0,-11.0,0.0,212651.0
77766.8212890625,2245.0,-6.0,1.0,212652.0
77780.1630859375,2246.0,-3.0,1.0,212652.0
77793.50512695312,2247.0,-1.0,3.0,212654.0
77806.84716796875,2248.0,1.0,5.0,212656.0
77820.18920898438,2249.0,1.0,9.0,212660.0
77833.53125,2250.0,2.0,14.0,212665.0
77846.87329101562,2251.0,4.0,18.0,212669.0
77860.21533203125,2252.0,6.0,20.0,212671.0
77873.55737304688,2253.0,7.0,21.0,212672.0
77886.8994140625,2254.0,7.0,19.0,212670.0
77900.2412109375,2255.0,7.0,15.0,212666.0
77913.58325195312,2256.0,6.0,9.0,212660.0
77926.92529296875,2257.0,5.0,4.0,212655.0
77940.26733398438,2258.0,5.0,1.0,212652.0
77953.609375,2259.0,7.0,1.0,212652.0
77966.95141601562,2260.0,9.0,4.0,212655.0
77980.29345703125,2261.0,11.0,7.0,212658.0
77993.63549804688,2262.0,11.0,8.0,212659.0
78006.9775390625,2263.0,12.0,9.0,212660.0
78020.3193359375,2264.0,13.0,10.0,212661.0
78033.66137695312,2265.0,16.0,11.0,212662.0
78047.00341796875,2266.0,18.0,12.0,212663.0
78060.34545898438,2267.0,21.0,13.0,212664.0
78073.6875,2268.0,22.0,16.0,212667.0
78087.02954101562,2269.0,24.0,18.0,212669.0
78100.37158203125,2270.0,26.0,20.0,212671.0
78113.71362304688,2271.0,26.0,22.0,212673.0
78127.0556640625,2272.0,28.0,23.0,212674.0
78140.3974609375,2273.0,32.0,24.0,212675.0
78153.73950195312,2274.0,35.0,24.0,212675.0
78167.08154296875,2275.0,37.0,23.0,212674.0
78180.42358398438,2276.0,40.0,21.0,212672.0
78193.765625,2277.0,40.0,18.0,212669.0
78207.10766601562,2278.0,39.0,17.0,212668.0
78220.44970703125,2279.0,36.0,15.0,212666.0
78233.79174804688,2280.0,34.0,14.0,212665.0
78247.1337890625,2281.0,32.0,15.0,212666.0
78260.4755859375,2282.0,28.0,16.0,212667.0
78273.81762695312,2283.0,24.0,16.0,212667.0
78287.15966796875,2284.0,18.0,11.0,212662.0
78300.50170898438,2285.0,4.0,0.0,212651.0
78313.84375,2286.0,-14.0,-15.0,212636.0
78327.18579101562,2287.0,-32.0,-29.0,212622.0
78340.52783203125,2288.0,-50.0,-40.0,212611.0
78353.86987304688,2289.0,-63.0,-47.0,212604.0
78367.2119140625,2290.0,-71.0,-52.0,212599.0
78380.5537109375,2291.0,-72.0,-54.0,212597.0
78393.89575195312,2292.0,-69.0,-54.0,212597.0
78407.23779296875,2293.0,-63.0,-50.0,212601.0
78420.57983398438,2294.0,-57.0,-45.0,212606.0
78433.921875,2295.0,-48.0,-39.0,212612.0
78447.26391601562,2296.0,-40.0,-33.0,212618.0
78460.60595703125,2297.0,-32.0,-28.0,212623.0
78473.94799804688,2298.0,-25.0,-25.0,212626.0
78487.2900390625,2299.0,-23.0,-22.0,212629.0
78500.6318359375,2300.0,-23.0,-21.0,212630.0
78513.97387695312,2301.0,-24.0,-21.0,212630.0
78527.31591796875,2302.0,-24.0,-20.0,212631.0
78540.65795898438,2303.0,-25.0,-17.0,212634.0
78554.0,2304.0,-25.0,-14.0,212637.0
78567.34204101562,2305.0,-21.0,-11.0,212640.0
78580.68408203125,2306.0,-18.0,-10.0,212641.0
78594.02612304688,2307.0,-15.0,-8.0,212643.0
78607.3681640625,2308.0,-13.0,-8.0,212643.0
78620.7099609375,2309.0,-11.0,-9.0,212642.0
78634.05200195312,2310.0,-9.0,-9.0,212642.0
78647.39404296875,2311.0,-6.0,-8.0,212643.0
78660.73608398438,2312.0,-2.0,-7.0,212644.0
78674.078125,2313.0,1.0,-5.0,212646.0
78687.42016601562,2314.0,5.0,-2.0,212649.0
78700.76220703125,2315.0,11.0,-1.0,212650.0
78714.10424804688,2316.0,17.0,-1.0,212650.0
78727.4462890625,2317.0,20.0,-1.0,212650.0
78740.7880859375,2318.0,20.0,-1.0,212650.0
78754.13012695312,2319.0,19.0,0.0,212651.0
78767.47216796875,2320.0,18.0,2.0,212653.0
78780.81420898438,2321.0,18.0,5.0,212656.0
78794.15625,2322.0,18.0,7.0,212658.0
78807.49829101562,2323.0,19.0,9.0,212660.0
78820.84033203125,2324.0,20.0,10.0,212661.0
78834.18237304688,2325.0,21.0,9.0,212660.0
78847.5244140625,2326.0,19.0,5.0,212656.0
78860.8662109375,2327.0,18.0,3.0,212654.0
78874.20825195312,2328.0,17.0,0.0,212651.0
78887.55029296875,2329.0,17.0,-3.0,212648.0
78900.89233398438,2330.0,20.0,-4.0,212647.0
78914.234375,2331.0,23.0,-5.0,212646.0
78927.57641601562,2332.0,27.0,-4.0,212647.0
78940.91845703125,2333.0,31.0,-2.0,212649.0
78954.26049804688,2334.0,32.0,0.0,212651.0
78967.6025390625,2335.0,33.0,1.0,212652.0
78980.9443359375,2336.0,33.0,0.0,212651.0
78994.28637695312,2337.0,31.0,-1.0,212650.0
79007.62841796875,2338.0,25.0,-5.0,212646.0
79020.97045898438,2339.0,14.0,-13.0,212638.0
79034.3125,2340.0,0.0,-24.0,212627.0
79047.65454101562,2341.0,-13.0,-33.0,212618.0
79060.99658203125,2342.0,-25.0,-39.0,212612.0
79074.33862304688,2343.0,-33.0,-42.0,212609.0
79087.6806640625,2344.0,-37.0,-40.0,212611.0
79101.0224609375,2345.0,-37.0,-38.0,212613.0
79114.36450195312,2346.0,-34.0,-34.0,212617.0
79127.70654296875,2347.0,-30.0,-28.0,212623.0
79141.04858398438,2348.0,-25.0,-23.0,212628.0
79154.390625,2349.0,-19.0,-17.0,212634.0
79167.73266601562,2350.0,-11.0,-10.0,212641.0
79181.07470703125,2351.0,-4.0,-7.0,212644.0
79194.41674804688,2352.0,1.0,-6.0,212645.0
79207.7587890625,2353.0,4.0,-6.0,212645.0
79221.1005859375,2354.0,6.0,-7.0,212644.0
79234.44262695312,2355.0,7.0,-8.0,212643.0
79247.78466796875,2356.0,8.0,-8.0,212643.0
79261.12670898438,2357.0,9.0,-5.0,212646.0
79274.46875,2358.0,13.0,1.0,212652.0
79287.81079101562,2359.0,17.0,7.0,212658.0
79301.15283203125,2360.0,21.0,12.0,212663.0
79314.49487304688,2361.0,24.0,15.0,212666.0
79327.8369140625,2362.0,24.0,16.0,212667.0
79341.1787109375,2363.0,21.0,15.0,212666.0
79354.52075195312,2364.0,18.0,13.0,212664.0
79367.86279296875,2365.0,17.0,10.0,212661.0
79381.20483398438,2366.0,17.0,8.0,212659.0
79394.546875,2367.0,18.0,6.0,212657.0
79407.88891601562,2368.0,21.0,5.0,212656.0
79421.23095703125,2369.0,24.0,7.0,212658.0
79434.57299804688,2370.0,28.0,9.0,212660.0
79447.9150390625,2371.0,29.0,11.0,212662.0
79461.2568359375,2372.0,31.0,14.0,212665.0
79474.59887695312,2373.0,31.0,16.0,212667.0
79487.94091796875,2374.0,29.0,18.0,212669.0
79501.28295898438,2375.0,27.0,17.0,212668.0
79514.625,2376.0,25.0,15.0,212666.0
79527.96704101562,2377.0,22.0,12.0,212663.0
79541.30908203125,2378.0,21.0,11.0,212662.0
79554.65112304688,2379.0,22.0,11.0,212662.0
79567.9931640625,2380.0,25.0,11.0,212662.0
79581.3349609375,2381.0,27.0,10.0,212661.0
79594.67700195312,2382.0,29.0,10.0,212661.0
79608.01904296875,2383.0,31.0,11.0,212662.0
79621.36108398438,2384.0,32.0,13.0,212664.0
79634.703125,2385.0,32.0,16.0,212667.0
79648.04516601562,2386.0,33.0,19.0,212670.0
79661.38720703125,2387.0,29.0,20.0,212671.0
79674.72924804688,2388.0,21.0,14.0,212665.0
79688.0712890625,2389.0,7.0,4.0,212655.0
79701.4130859375,2390.0,-10.0,-9.0,212642.0
79714.75512695312,2391.0,-26.0,-21.0,212630.0
79728.09716796875,2392.0,-39.0,-32.0,212619.0
79741.43920898438,2393.0,-49.0,-40.0,212611.0
79754.78125,2394.0,-53.0,-45.0,212606.0
79768.12329101562,2395.0,-52.0,-45.0,212606.0
79781.46533203125,2396.0,-48.0,-44.0,212607.0
79794.80737304688,2397.0,-40.0,-41.0,212610.0
79808.1494140625,2398.0,-33.0,-39.0,212612.0
79821.4912109375,2399.0,-25.0,-36.0,212615.0
79834.83325195312,2400.0,-18.0,-33.0,212618.0
79848.17529296875,2401.0,-11.0,-28.0,212623.0
79861.51733398438,2402.0,-5.0,-25.0,212626.0
79874.859375,2403.0,-2.0,-23.0,212628.0
79888.20141601562,2404.0,-1.0,-20.0,212631.0
79901.54345703125,2405.0,-1.0,-17.0,212634.0
79914.88549804688,2406.0,-2.0,-13.0,212638.0
79928.2275390625,2407.0,-3.0,-10.0,212641.0
79941.5693359375,2408.0,-2.0,-9.0,212642.0
79954.91137695312,2409.0,-2.0,-7.0,212644.0
79968.25341796875,2410.0,-1.0,-5.0,212646.0
79981.59545898438,2411.0,0.0,-2.0,212649.0
79994.9375,2412.0,0.0,-2.0,212649.0
80008.27954101562,2413.0,-1.0,-4.0,212647.0
80021.62158203125,2414.0,-2.0,-6.0,212645.0
80034.96362304688,2415.0,-4.0,-9.0,212642.0
80048.3056640625,2416.0,-4.0,-11.0,212640.0
80061.6474609375,2417.0,-3.0,-12.0,212639.0
80074.98950195312,2418.0,-1.0,-12.0,212639.0
80088.33154296875,2419.0,2.0,-10.0,212641.0
80101.67358398438,2420.0,5.0,-7.0,212644.0
80115.015625,2421.0,9.0,-3.0,212648.0
80128.35766601562,2422.0,14.0,1.0,212652.0
80141.69970703125,2423.0,17.0,2.0,212653.0
80155.04174804688,2424.0,18.0,1.0,212652.0
80168.3837890625,2425.0,18.0,0.0,212651.0
80181.7255859375,2426.0,18.0,1.0,212652.0
80195.06762695312,2427.0,19.0,4.0,212655.0
80208.40966796875,2428.0,20.0,5.0,212656.0
80221.75170898438,2429.0,21.0,5.0,212656.0
80235.09375,2430.0,23.0,5.0,212656.0
80248.43579101562,2431.0,25.0,4.0,212655.0
80261.77783203125,2432.0,25.0,3.0,212654.0
80275.11987304688,2433.0,25.0,-1.0,212650.0
80288.4619140625,2434.0,25.0,-3.0,212648.0
80301.8037109375,2435.0,25.0,-4.0,212647.0
80315.14575195312,2436.0,26.0,-4.0,212647.0
80328.48779296875,2437.0,26.0,-6.0,212645.0
80341.82983398438,2438.0,20.0,-12.0,212639.0
80355.171875,2439.0,7.0,-21.0,212630.0
80368.51391601562,2440.0,-11.0,-30.0,212621.0
80381.85595703125,2441.0,-27.0,-36.0,212615.0
80395.19799804688,2442.0,-40.0,-38.0,212613.0
80408.5400390625,2443.0,-46.0,-40.0,212611.0
80421.8818359375,2444.0,-47.0,-40.0,212611.0
80435.22387695312,2445.0,-46.0,-40.0,212611.0
80448.56591796875,2446.0,-41.0,-40.0,212611.0
80461.90795898438,2447.0,-32.0,-40.0,212611.0
80475.25,2448.0,-22.0,-36.0,212615.0
80488.59204101562,2449.0,-12.0,-29.0,212622.0
80501.93408203125,2450.0,-3.0,-22.0,212629.0
80515.27612304688,2451.0,2.0,-16.0,212635.0
80528.6181640625,2452.0,4.0,-13.0,212638.0
80541.9599609375,2453.0,4.0,-12.0,212639.0
80555.30200195312,2454.0,3.0,-11.0,212640.0
80568.64404296875,2455.0,3.0,-11.0,212640.0
80581.98608398438,2456.0,4.0,-11.0,212640.0
80595.328125,2457.0,5.0,-8.0,212643.0
80608.67016601562,2458.0,7.0,-4.0,212647.0
80622.01220703125,2459.0,9.0,-2.0,212649.0
80635.35424804688,2460.0,8.0,-1.0,212650.0
80648.6962890625,2461.0,5.0,-3.0,212648.0
80662.0380859375,2462.0,1.0,-5.0,212646.0
80675.38012695312,2463.0,-2.0,-9.0,212642.0
80688.72216796875,2464.0,-5.0,-14.0,212637.0
80702.06420898438,2465.0,-6.0,-17.0,212634.0
80715.40625,2466.0,-7.0,-17.0,212634.0
80728.74829101562,2467.0,-8.0,-16.0,212635.0
80742.09033203125,2468.0,-9.0,-15.0,212636.0
80755.43237304688,2469.0,-10.0,-17.0,212634.0
80768.7744140625,2470.0,-9.0,-18.0,212633.0
80782.1162109375,2471.0,-7.0,-20.0,212631.0
80795.45825195312,2472.0,-3.0,-20.0,212631.0
80808.80029296875,2473.0,0.0,-19.0,212632.0
80822.14233398438,2474.0,4.0,-16.0,212635.0
80835.484375,2475.0,7.0,-9.0,212642.0
80848.82641601562,2476.0,9.0,-3.0,212648.0
80862.16845703125,2477.0,11.0,2.0,212653.0
80875.51049804688,2478.0,12.0,4.0,212655.0
80888.8525390625,2479.0,14.0,5.0,212656.0
80902.1943359375,2480.0,17.0,5.0,212656.0
80915.53637695312,2481.0,19.0,5.0,212656.0
80928.87841796875,2482.0,21.0,4.0,212655.0
80942.22045898438,2483.0,20.0,3.0,212654.0
80955.5625,2484.0,18.0,3.0,212654.0
80968.90454101562,2485.0,16.0,4.0,212655.0
80982.24658203125,2486.0,14.0,5.0,212656.0
80995.58862304688,2487.0,11.0,5.0,212656.0
