timestamp,sampleNum,BIOZI,BIOZQ,BIOZ
92879.34130859375,1.0,336880.0,-187559.0,24659.0
92892.68237304688,2.0,362131.0,-203450.0,8768.0
92906.02368164062,3.0,373294.0,-210833.0,1385.0
92919.36499023438,4.0,374664.0,-212218.0,0.0
92932.7060546875,5.0,370139.0,-209931.0,2287.0
92946.04736328125,6.0,362728.0,-205794.0,6424.0
92959.38842773438,7.0,354462.0,-201053.0,11165.0
92972.72973632812,8.0,346524.0,-196451.0,15767.0
92986.07104492188,9.0,339463.0,-192338.0,19880.0
92999.412109375,10.0,333408.0,-188812.0,23406.0
93012.75341796875,11.0,328255.0,-185823.0,26395.0
93026.0947265625,12.0,323799.0,-183256.0,28962.0
93039.43579101562,13.0,319821.0,-180981.0,31237.0
93052.77709960938,14.0,316134.0,-178889.0,33329.0
93066.1181640625,15.0,312604.0,-176896.0,35322.0
93079.45947265625,16.0,309141.0,-174945.0,37273.0
93092.80078125,17.0,305700.0,-173006.0,39212.0
93106.14184570312,18.0,302259.0,-171062.0,41156.0
93119.48315429688,19.0,298814.0,-169113.0,43105.0
93132.82446289062,20.0,295369.0,-167162.0,45056.0
93146.16552734375,21.0,291938.0,-165216.0,47002.0
93159.5068359375,22.0,288528.0,-163280.0,48938.0
93172.84814453125,23.0,285148.0,-161358.0,50860.0
93186.18920898438,24.0,281802.0,-159457.0,52761.0
93199.53051757812,25.0,278493.0,-157579.0,54639.0
93212.87158203125,26.0,275221.0,-155725.0,56493.0
93226.212890625,27.0,271989.0,-153897.0,58321.0
93239.55419921875,28.0,268795.0,-152096.0,60122.0
93252.89526367188,29.0,265640.0,-150317.0,61901.0
93266.23657226562,30.0,262523.0,-148561.0,63657.0
93279.57788085938,31.0,259443.0,-146826.0,65392.0
93292.9189453125,32.0,256400.0,-145110.0,67108.0
93306.26025390625,33.0,253392.0,-143414.0,68804.0
93319.60131835938,34.0,250422.0,-141735.0,70483.0
93332.94262695312,35.0,247489.0,-140074.0,72144.0
93346.28393554688,36.0,244590.0,-138434.0,73784.0
93359.625,37.0,241720.0,-136814.0,75404.0
93372.96630859375,38.0,238876.0,-135220.0,76998.0
93386.3076171875,39.0,236063.0,-133646.0,78572.0
93399.64868164062,40.0,233281.0,-132091.0,80127.0
93412.98999023438,41.0,230535.0,-130552.0,81666.0
93426.33129882812,42.0,227827.0,-129029.0,83189.0
93439.67236328125,43.0,225154.0,-127520.0,84698.0
93453.013671875,44.0,222518.0,-126028.0,86190.0
93466.35473632812,45.0,219916.0,-124551.0,87667.0
93479.69604492188,46.0,217346.0,-123089.0,89129.0
93493.03735351562,47.0,214809.0,-121645.0,90573.0
93506.37841796875,48.0,212300.0,-120216.0,92002.0
93519.7197265625,49.0,209821.0,-118805.0,93413.0
93533.06103515625,50.0,207369.0,-117409.0,94809.0
93546.40209960938,51.0,204944.0,-116033.0,96185.0
93559.74340820312,52.0,202544.0,-114672.0,97546.0
93573.08447265625,53.0,200171.0,-113328.0,98890.0
93586.42578125,54.0,197826.0,-112001.0,100217.0
93599.76708984375,55.0,195507.0,-110688.0,101530.0
93613.10815429688,56.0,193216.0,-109388.0,102830.0
93626.44946289062,57.0,190953.0,-108102.0,104116.0
93639.79077148438,58.0,188714.0,-106832.0,105386.0
93653.1318359375,59.0,186501.0,-105576.0,106642.0
93666.47314453125,60.0,184312.0,-104338.0,107880.0
93679.81420898438,61.0,182149.0,-103118.0,109100.0
93693.15551757812,62.0,180012.0,-101912.0,110306.0
93706.49682617188,63.0,177899.0,-100720.0,111498.0
93719.837890625,64.0,175813.0,-99541.0,112677.0
93733.17919921875,65.0,173752.0,-98374.0,113844.0
93746.5205078125,66.0,171717.0,-97220.0,114998.0
93759.86157226562,67.0,169705.0,-96082.0,116136.0
93773.20288085938,68.0,167716.0,-94958.0,117260.0
93786.54418945312,69.0,165753.0,-93849.0,118369.0
93799.88525390625,70.0,163811.0,-92751.0,119467.0
93813.2265625,71.0,161894.0,-91666.0,120552.0
93826.56762695312,72.0,159999.0,-90592.0,121626.0
93839.90893554688,73.0,158127.0,-89529.0,122689.0
93853.25024414062,74.0,156278.0,-88477.0,123741.0
93866.59130859375,75.0,154453.0,-87436.0,124782.0
93879.9326171875,76.0,152649.0,-86407.0,125811.0
93893.27392578125,77.0,150867.0,-85391.0,126827.0
93906.61499023438,78.0,149104.0,-84391.0,127827.0
93919.95629882812,79.0,147361.0,-83402.0,128816.0
93933.29736328125,80.0,145637.0,-82423.0,129795.0
93946.638671875,81.0,143930.0,-81456.0,130762.0
93959.97998046875,82.0,142241.0,-80502.0,131716.0
93973.32104492188,83.0,140566.0,-79565.0,132653.0
93986.66235351562,84.0,138902.0,-78643.0,133575.0
94000.00366210938,85.0,137254.0,-77735.0,134483.0
94013.3447265625,86.0,135624.0,-76836.0,135382.0
94026.68603515625,87.0,134018.0,-75945.0,136273.0
94040.02734375,88.0,132437.0,-75062.0,137156.0
94053.36840820312,89.0,130882.0,-74188.0,138030.0
94066.70971679688,90.0,129352.0,-73319.0,138899.0
94080.05078125,91.0,127843.0,-72459.0,139759.0
94093.39208984375,92.0,126353.0,-71608.0,140610.0
94106.7333984375,93.0,124880.0,-70767.0,141451.0
94120.07446289062,94.0,123424.0,-69934.0,142284.0
94133.41577148438,95.0,121981.0,-69112.0,143106.0
94146.75708007812,96.0,120553.0,-68300.0,143918.0
94160.09814453125,97.0,119141.0,-67498.0,144720.0
94173.439453125,98.0,117745.0,-66707.0,145511.0
94186.78051757812,99.0,116364.0,-65926.0,146292.0
94200.12182617188,100.0,114999.0,-65153.0,147065.0
94213.46313476562,101.0,113654.0,-64389.0,147829.0
94226.80419921875,102.0,112326.0,-63632.0,148586.0
94240.1455078125,103.0,111014.0,-62883.0,149335.0
94253.48681640625,104.0,109717.0,-62143.0,150075.0
94266.82788085938,105.0,108436.0,-61413.0,150805.0
94280.16918945312,106.0,107170.0,-60692.0,151526.0
94293.51049804688,107.0,105915.0,-59980.0,152238.0
94306.8515625,108.0,104674.0,-59277.0,152941.0
94320.19287109375,109.0,103447.0,-58582.0,153636.0
94333.53393554688,110.0,102234.0,-57894.0,154324.0
94346.87524414062,111.0,101036.0,-57214.0,155004.0
94360.21655273438,112.0,99852.0,-56541.0,155677.0
94373.5576171875,113.0,98684.0,-55877.0,156341.0
94386.89892578125,114.0,97530.0,-55221.0,156997.0
94400.240234375,115.0,96391.0,-54573.0,157645.0
94413.58129882812,116.0,95264.0,-53932.0,158286.0
94426.92260742188,117.0,94150.0,-53300.0,158918.0
94440.263671875,118.0,93048.0,-52675.0,159543.0
94453.60498046875,119.0,91960.0,-52055.0,160163.0
94466.9462890625,120.0,90885.0,-51443.0,160775.0
94480.28735351562,121.0,89823.0,-50838.0,161380.0
94493.62866210938,122.0,88774.0,-50240.0,161978.0
94506.96997070312,123.0,87737.0,-49647.0,162571.0
94520.31103515625,124.0,86711.0,-49062.0,163156.0
94533.65234375,125.0,85697.0,-48484.0,163734.0
94546.99365234375,126.0,84693.0,-47913.0,164305.0
94560.33471679688,127.0,83698.0,-47347.0,164871.0
94573.67602539062,128.0,82714.0,-46791.0,165427.0
94587.01708984375,129.0,81741.0,-46244.0,165974.0
94600.3583984375,130.0,80781.0,-45705.0,166513.0
94613.69970703125,131.0,79830.0,-45175.0,167043.0
94627.04077148438,132.0,78885.0,-44652.0,167566.0
94640.38208007812,133.0,77949.0,-44139.0,168079.0
94653.72338867188,134.0,77022.0,-43633.0,168585.0
94667.064453125,135.0,76109.0,-43130.0,169088.0
94680.40576171875,136.0,75210.0,-42632.0,169586.0
94693.74682617188,137.0,74325.0,-42135.0,170083.0
94707.08813476562,138.0,73456.0,-41643.0,170575.0
94720.42944335938,139.0,72603.0,-41153.0,171065.0
94733.7705078125,140.0,71761.0,-40667.0,171551.0
94747.11181640625,141.0,70929.0,-40188.0,172030.0
94760.453125,142.0,70106.0,-39713.0,172505.0
94773.79418945312,143.0,69292.0,-39244.0,172974.0
94787.13549804688,144.0,68488.0,-38782.0,173436.0
94800.47680664062,145.0,67692.0,-38324.0,173894.0
94813.81787109375,146.0,66905.0,-37873.0,174345.0
94827.1591796875,147.0,66124.0,-37426.0,174792.0
94840.50024414062,148.0,65351.0,-36984.0,175234.0
94853.84155273438,149.0,64586.0,-36546.0,175672.0
94867.18286132812,150.0,63832.0,-36114.0,176104.0
94880.52392578125,151.0,63086.0,-35687.0,176531.0
94893.865234375,152.0,62347.0,-35264.0,176954.0
94907.20654296875,153.0,61618.0,-34848.0,177370.0
94920.54760742188,154.0,60896.0,-34438.0,177780.0
94933.88891601562,155.0,60179.0,-34034.0,178184.0
94947.22998046875,156.0,59469.0,-33637.0,178581.0
94960.5712890625,157.0,58765.0,-33246.0,178972.0
94973.91259765625,158.0,58071.0,-32857.0,179361.0
94987.25366210938,159.0,57388.0,-32471.0,179747.0
95000.59497070312,160.0,56715.0,-32086.0,180132.0
95013.93627929688,161.0,56054.0,-31707.0,180511.0
95027.27734375,162.0,55403.0,-31332.0,180886.0
95040.61865234375,163.0,54762.0,-30963.0,181255.0
95053.95971679688,164.0,54131.0,-30599.0,181619.0
95067.30102539062,165.0,53505.0,-30239.0,181979.0
95080.64233398438,166.0,52886.0,-29882.0,182336.0
95093.9833984375,167.0,52272.0,-29528.0,182690.0
95107.32470703125,168.0,51663.0,-29179.0,183039.0
95120.666015625,169.0,51061.0,-28834.0,183384.0
95134.00708007812,170.0,50465.0,-28495.0,183723.0
95147.34838867188,171.0,49874.0,-28161.0,184057.0
95160.68969726562,172.0,49287.0,-27833.0,184385.0
95174.03076171875,173.0,48708.0,-27508.0,184710.0
95187.3720703125,174.0,48133.0,-27188.0,185030.0
95200.71313476562,175.0,47564.0,-26869.0,185349.0
95214.05444335938,176.0,47003.0,-26553.0,185665.0
95227.39575195312,177.0,46449.0,-26243.0,185975.0
95240.73681640625,178.0,45898.0,-25939.0,186279.0
95254.078125,179.0,45351.0,-25643.0,186575.0
95267.41943359375,180.0,44804.0,-25354.0,186864.0
95280.76049804688,181.0,44264.0,-25069.0,187149.0
95294.10180664062,182.0,43731.0,-24787.0,187431.0
95307.44287109375,183.0,43211.0,-24505.0,187713.0
95320.7841796875,184.0,42702.0,-24222.0,187996.0
95334.12548828125,185.0,42201.0,-23939.0,188279.0
95347.46655273438,186.0,41709.0,-23657.0,188561.0
95360.80786132812,187.0,41224.0,-23377.0,188841.0
95374.14916992188,188.0,40744.0,-23099.0,189119.0
95387.490234375,189.0,40270.0,-22824.0,189394.0
95400.83154296875,190.0,39800.0,-22552.0,189666.0
95414.1728515625,191.0,39334.0,-22284.0,189934.0
95427.51391601562,192.0,38873.0,-22017.0,190201.0
95440.85522460938,193.0,38419.0,-21755.0,190463.0
95454.1962890625,194.0,37971.0,-21499.0,190719.0
95467.53759765625,195.0,37529.0,-21246.0,190972.0
95480.87890625,196.0,37092.0,-20999.0,191219.0
95494.21997070312,197.0,36658.0,-20752.0,191466.0
95507.56127929688,198.0,36231.0,-20509.0,191709.0
95520.90258789062,199.0,35811.0,-20267.0,191951.0
95534.24365234375,200.0,35395.0,-20028.0,192190.0
95547.5849609375,201.0,34981.0,-19794.0,192424.0
95560.92602539062,202.0,34570.0,-19562.0,192656.0
95574.26733398438,203.0,34162.0,-19332.0,192886.0
95587.60864257812,204.0,33758.0,-19105.0,193113.0
95600.94970703125,205.0,33359.0,-18882.0,193336.0
95614.291015625,206.0,32968.0,-18662.0,193556.0
95627.63232421875,207.0,32584.0,-18444.0,193774.0
95640.97338867188,208.0,32206.0,-18227.0,193991.0
95654.31469726562,209.0,31834.0,-18011.0,194207.0
95667.65600585938,210.0,31464.0,-17797.0,194421.0
95680.9970703125,211.0,31097.0,-17587.0,194631.0
95694.33837890625,212.0,30735.0,-17378.0,194840.0
95707.67944335938,213.0,30375.0,-17170.0,195048.0
95721.02075195312,214.0,30021.0,-16966.0,195252.0
95734.36206054688,215.0,29672.0,-16767.0,195451.0
95747.703125,216.0,29326.0,-16570.0,195648.0
95761.04443359375,217.0,28983.0,-16376.0,195842.0
95774.3857421875,218.0,28646.0,-16183.0,196035.0
95787.72680664062,219.0,28312.0,-15995.0,196223.0
95801.06811523438,220.0,27983.0,-15807.0,196411.0
95814.4091796875,221.0,27658.0,-15622.0,196596.0
95827.75048828125,222.0,27338.0,-15440.0,196778.0
95841.091796875,223.0,27021.0,-15259.0,196959.0
95854.43286132812,224.0,26705.0,-15080.0,197138.0
95867.77416992188,225.0,26390.0,-14906.0,197312.0
95881.11547851562,226.0,26073.0,-14738.0,197480.0
95894.45654296875,227.0,25753.0,-14573.0,197645.0
95907.7978515625,228.0,25436.0,-14411.0,197807.0
95921.13916015625,229.0,25123.0,-14250.0,197968.0
95934.48022460938,230.0,24817.0,-14088.0,198130.0
95947.82153320312,231.0,24521.0,-13927.0,198291.0
95961.16259765625,232.0,24233.0,-13766.0,198452.0
95974.50390625,233.0,23951.0,-13604.0,198614.0
95987.84521484375,234.0,23676.0,-13442.0,198776.0
96001.18627929688,235.0,23406.0,-13281.0,198937.0
96014.52758789062,236.0,23140.0,-13121.0,199097.0
96027.86889648438,237.0,22875.0,-12965.0,199253.0
96041.2099609375,238.0,22615.0,-12811.0,199407.0
96054.55126953125,239.0,22356.0,-12658.0,199560.0
96067.89233398438,240.0,22098.0,-12505.0,199713.0
96081.23364257812,241.0,21841.0,-12353.0,199865.0
96094.57495117188,242.0,21585.0,-12206.0,200012.0
96107.916015625,243.0,21333.0,-12062.0,200156.0
96121.25732421875,244.0,21083.0,-11919.0,200299.0
96134.5986328125,245.0,20837.0,-11779.0,200439.0
96147.93969726562,246.0,20598.0,-11640.0,200578.0
96161.28100585938,247.0,20361.0,-11503.0,200715.0
96174.62231445312,248.0,20124.0,-11368.0,200850.0
96187.96337890625,249.0,19886.0,-11236.0,200982.0
96201.3046875,250.0,19648.0,-11104.0,201114.0
96214.64575195312,251.0,19412.0,-10975.0,201243.0
96227.98706054688,252.0,19178.0,-10848.0,201370.0
96241.32836914062,253.0,18947.0,-10721.0,201497.0
96254.66943359375,254.0,18720.0,-10595.0,201623.0
96268.0107421875,255.0,18498.0,-10469.0,201749.0
96281.35205078125,256.0,18279.0,-10343.0,201875.0
96294.69311523438,257.0,18064.0,-10220.0,201998.0
96308.03442382812,258.0,17852.0,-10098.0,202120.0
96321.37548828125,259.0,17645.0,-9980.0,202238.0
96334.716796875,260.0,17442.0,-9863.0,202355.0
96348.05810546875,261.0,17241.0,-9749.0,202469.0
96361.39916992188,262.0,17040.0,-9636.0,202582.0
96374.74047851562,263.0,16841.0,-9524.0,202694.0
96388.08178710938,264.0,16646.0,-9412.0,202806.0
96401.4228515625,265.0,16453.0,-9302.0,202916.0
96414.76416015625,266.0,16263.0,-9192.0,203026.0
96428.10522460938,267.0,16075.0,-9084.0,203134.0
96441.44653320312,268.0,15888.0,-8978.0,203240.0
96454.78784179688,269.0,15702.0,-8875.0,203343.0
96468.12890625,270.0,15519.0,-8773.0,203445.0
96481.47021484375,271.0,15340.0,-8673.0,203545.0
96494.8115234375,272.0,15162.0,-8573.0,203645.0
96508.15258789062,273.0,14984.0,-8476.0,203742.0
96521.49389648438,274.0,14804.0,-8381.0,203837.0
96534.83520507812,275.0,14618.0,-8291.0,203927.0
96548.17626953125,276.0,14431.0,-8202.0,204016.0
96561.517578125,277.0,14246.0,-8114.0,204104.0
96574.85864257812,278.0,14066.0,-8026.0,204192.0
96588.19995117188,279.0,13892.0,-7937.0,204281.0
96601.54125976562,280.0,13726.0,-7847.0,204371.0
96614.88232421875,281.0,13567.0,-7757.0,204461.0
96628.2236328125,282.0,13414.0,-7668.0,204550.0
96641.56494140625,283.0,13265.0,-7579.0,204639.0
96654.90600585938,284.0,13117.0,-7489.0,204729.0
96668.24731445312,285.0,12969.0,-7399.0,204819.0
96681.58837890625,286.0,12821.0,-7311.0,204907.0
96694.9296875,287.0,12675.0,-7223.0,204995.0
96708.27099609375,288.0,12530.0,-7136.0,205082.0
96721.61206054688,289.0,12386.0,-7050.0,205168.0
96734.95336914062,290.0,12243.0,-6964.0,205254.0
96748.29467773438,291.0,12100.0,-6880.0,205338.0
96761.6357421875,292.0,11956.0,-6798.0,205420.0
96774.97705078125,293.0,11816.0,-6718.0,205500.0
96788.318359375,294.0,11680.0,-6638.0,205580.0
96801.65942382812,295.0,11547.0,-6561.0,205657.0
96815.00073242188,296.0,11417.0,-6483.0,205735.0
96828.341796875,297.0,11289.0,-6407.0,205811.0
96841.68310546875,298.0,11159.0,-6333.0,205885.0
96855.0244140625,299.0,11030.0,-6260.0,205958.0
96868.36547851562,300.0,10904.0,-6187.0,206031.0
96881.70678710938,301.0,10779.0,-6113.0,206105.0
96895.04809570312,302.0,10656.0,-6036.0,206182.0
96908.38916015625,303.0,10534.0,-5960.0,206258.0
96921.73046875,304.0,10413.0,-5887.0,206331.0
96935.07153320312,305.0,10292.0,-5818.0,206400.0
96948.41284179688,306.0,10173.0,-5752.0,206466.0
96961.75415039062,307.0,10055.0,-5687.0,206531.0
96975.09521484375,308.0,9938.0,-5623.0,206595.0
96988.4365234375,309.0,9822.0,-5558.0,206660.0
97001.77783203125,310.0,9705.0,-5494.0,206724.0
97015.11889648438,311.0,9589.0,-5431.0,206787.0
97028.46020507812,312.0,9475.0,-5369.0,206849.0
97041.80151367188,313.0,9363.0,-5307.0,206911.0
97055.142578125,314.0,9257.0,-5245.0,206973.0
97068.48388671875,315.0,9153.0,-5183.0,207035.0
97081.82495117188,316.0,9051.0,-5123.0,207095.0
97095.16625976562,317.0,8948.0,-5062.0,207156.0
97108.50756835938,318.0,8847.0,-5001.0,207217.0
97121.8486328125,319.0,8745.0,-4941.0,207277.0
97135.18994140625,320.0,8643.0,-4881.0,207337.0
97148.53125,321.0,8540.0,-4822.0,207396.0
97161.87231445312,322.0,8438.0,-4764.0,207454.0
97175.21362304688,323.0,8335.0,-4708.0,207510.0
97188.5546875,324.0,8230.0,-4656.0,207562.0
97201.89599609375,325.0,8122.0,-4611.0,207607.0
97215.2373046875,326.0,8011.0,-4571.0,207647.0
97228.57836914062,327.0,7901.0,-4531.0,207687.0
97241.91967773438,328.0,7794.0,-4487.0,207731.0
97255.26098632812,329.0,7695.0,-4438.0,207780.0
97268.60205078125,330.0,7603.0,-4386.0,207832.0
97281.943359375,331.0,7516.0,-4332.0,207886.0
97295.28466796875,332.0,7435.0,-4276.0,207942.0
97308.62573242188,333.0,7357.0,-4219.0,207999.0
97321.96704101562,334.0,7281.0,-4161.0,208057.0
97335.30810546875,335.0,7204.0,-4107.0,208111.0
97348.6494140625,336.0,7125.0,-4055.0,208163.0
97361.99072265625,337.0,7045.0,-4005.0,208213.0
97375.33178710938,338.0,6961.0,-3958.0,208260.0
97388.67309570312,339.0,6879.0,-3913.0,208305.0
97402.01440429688,340.0,6797.0,-3868.0,208350.0
97415.35546875,341.0,6718.0,-3824.0,208394.0
97428.69677734375,342.0,6641.0,-3781.0,208437.0
97442.03784179688,343.0,6564.0,-3736.0,208482.0
97455.37915039062,344.0,6489.0,-3691.0,208527.0
97468.72045898438,345.0,6415.0,-3646.0,208572.0
97482.0615234375,346.0,6341.0,-3605.0,208613.0
97495.40283203125,347.0,6266.0,-3562.0,208656.0
97508.744140625,348.0,6191.0,-3521.0,208697.0
97522.08520507812,349.0,6117.0,-3478.0,208740.0
97535.42651367188,350.0,6046.0,-3438.0,208780.0
97548.76782226562,351.0,5977.0,-3398.0,208820.0
97562.10888671875,352.0,5909.0,-3359.0,208859.0
97575.4501953125,353.0,5844.0,-3319.0,208899.0
97588.79125976562,354.0,5781.0,-3278.0,208940.0
97602.13256835938,355.0,5719.0,-3237.0,208981.0
97615.47387695312,356.0,5657.0,-3196.0,209022.0
97628.81494140625,357.0,5597.0,-3155.0,209063.0
97642.15625,358.0,5536.0,-3116.0,209102.0
97655.49755859375,359.0,5474.0,-3077.0,209141.0
97668.83862304688,360.0,5410.0,-3039.0,209179.0
97682.17993164062,361.0,5345.0,-3000.0,209218.0
97695.52099609375,362.0,5280.0,-2962.0,209256.0
97708.8623046875,363.0,5216.0,-2924.0,209294.0
97722.20361328125,364.0,5156.0,-2887.0,209331.0
97735.54467773438,365.0,5096.0,-2852.0,209366.0
97748.88598632812,366.0,5037.0,-2819.0,209399.0
97762.22729492188,367.0,4979.0,-2787.0,209431.0
97775.568359375,368.0,4920.0,-2757.0,209461.0
97788.90966796875,369.0,4862.0,-2728.0,209490.0
97802.25073242188,370.0,4805.0,-2698.0,209520.0
97815.59204101562,371.0,4750.0,-2670.0,209548.0
97828.93334960938,372.0,4689.0,-2644.0,209574.0
97842.2744140625,373.0,4624.0,-2620.0,209598.0
97855.61572265625,374.0,4556.0,-2597.0,209621.0
97868.95703125,375.0,4489.0,-2574.0,209644.0
97882.29809570312,376.0,4423.0,-2550.0,209668.0
97895.63940429688,377.0,4361.0,-2523.0,209695.0
97908.98071289062,378.0,4305.0,-2494.0,209724.0
97922.32177734375,379.0,4258.0,-2465.0,209753.0
97935.6630859375,380.0,4215.0,-2433.0,209785.0
97949.00415039062,381.0,4176.0,-2399.0,209819.0
97962.34545898438,382.0,4137.0,-2366.0,209852.0
97975.68676757812,383.0,4096.0,-2335.0,209883.0
97989.02783203125,384.0,4055.0,-2304.0,209914.0
98002.369140625,385.0,4014.0,-2276.0,209942.0
98015.71044921875,386.0,3970.0,-2250.0,209968.0
98029.05151367188,387.0,3925.0,-2224.0,209994.0
98042.39282226562,388.0,3879.0,-2200.0,210018.0
98055.73388671875,389.0,3832.0,-2176.0,210042.0
98069.0751953125,390.0,3786.0,-2153.0,210065.0
98082.41650390625,391.0,3742.0,-2130.0,210088.0
98095.75756835938,392.0,3701.0,-2105.0,210113.0
98109.09887695312,393.0,3658.0,-2080.0,210138.0
98122.44018554688,394.0,3616.0,-2055.0,210163.0
98135.78125,395.0,3574.0,-2028.0,210190.0
98149.12255859375,396.0,3531.0,-2002.0,210216.0
98162.4638671875,397.0,3489.0,-1974.0,210244.0
98175.80493164062,398.0,3447.0,-1947.0,210271.0
98189.14624023438,399.0,3407.0,-1922.0,210296.0
98202.4873046875,400.0,3369.0,-1898.0,210320.0
98215.82861328125,401.0,3331.0,-1873.0,210345.0
98229.169921875,402.0,3294.0,-1849.0,210369.0
98242.51098632812,403.0,3258.0,-1825.0,210393.0
98255.85229492188,404.0,3222.0,-1801.0,210417.0
98269.19360351562,405.0,3187.0,-1779.0,210439.0
98282.53466796875,406.0,3150.0,-1757.0,210461.0
98295.8759765625,407.0,3115.0,-1736.0,210482.0
98309.21704101562,408.0,3078.0,-1717.0,210501.0
98322.55834960938,409.0,3040.0,-1697.0,210521.0
98335.89965820312,410.0,3000.0,-1681.0,210537.0
98349.24072265625,411.0,2961.0,-1663.0,210555.0
98362.58203125,412.0,2924.0,-1644.0,210574.0
98375.92333984375,413.0,2890.0,-1626.0,210592.0
98389.26440429688,414.0,2857.0,-1608.0,210610.0
98402.60571289062,415.0,2825.0,-1592.0,210626.0
98415.94702148438,416.0,2792.0,-1577.0,210641.0
98429.2880859375,417.0,2757.0,-1563.0,210655.0
98442.62939453125,418.0,2717.0,-1550.0,210668.0
98455.97045898438,419.0,2670.0,-1539.0,210679.0
98469.31176757812,420.0,2618.0,-1532.0,210686.0
98482.65307617188,421.0,2567.0,-1524.0,210694.0
98495.994140625,422.0,2521.0,-1514.0,210704.0
98509.33544921875,423.0,2480.0,-1501.0,210717.0
98522.6767578125,424.0,2446.0,-1487.0,210731.0
98536.01782226562,425.0,2417.0,-1472.0,210746.0
98549.35913085938,426.0,2392.0,-1454.0,210764.0
98562.7001953125,427.0,2369.0,-1434.0,210784.0
98576.04150390625,428.0,2348.0,-1412.0,210806.0
98589.3828125,429.0,2330.0,-1391.0,210827.0
98602.72387695312,430.0,2312.0,-1370.0,210848.0
98616.06518554688,431.0,2291.0,-1350.0,210868.0
98629.40649414062,432.0,2271.0,-1332.0,210886.0
98642.74755859375,433.0,2247.0,-1315.0,210903.0
98656.0888671875,434.0,2222.0,-1299.0,210919.0
98669.43017578125,435.0,2197.0,-1284.0,210934.0
98682.77124023438,436.0,2172.0,-1269.0,210949.0
98696.11254882812,437.0,2147.0,-1252.0,210966.0
98709.45361328125,438.0,2124.0,-1235.0,210983.0
98722.794921875,439.0,2103.0,-1220.0,210998.0
98736.13623046875,440.0,2082.0,-1203.0,211015.0
98749.47729492188,441.0,2058.0,-1187.0,211031.0
98762.81860351562,442.0,2035.0,-1171.0,211047.0
98776.15991210938,443.0,2010.0,-1155.0,211063.0
98789.5009765625,444.0,1986.0,-1139.0,211079.0
98802.84228515625,445.0,1963.0,-1123.0,211095.0
98816.18334960938,446.0,1941.0,-1107.0,211111.0
98829.52465820312,447.0,1920.0,-1092.0,211126.0
98842.86596679688,448.0,1901.0,-1077.0,211141.0
98856.20703125,449.0,1884.0,-1063.0,211155.0
98869.54833984375,450.0,1866.0,-1050.0,211168.0
98882.8896484375,451.0,1849.0,-1037.0,211181.0
98896.23071289062,452.0,1831.0,-1026.0,211192.0
98909.57202148438,453.0,1813.0,-1015.0,211203.0
98922.91333007812,454.0,1794.0,-1004.0,211214.0
98936.25439453125,455.0,1775.0,-993.0,211225.0
98949.595703125,456.0,1756.0,-983.0,211235.0
98962.93676757812,457.0,1734.0,-973.0,211245.0
98976.27807617188,458.0,1713.0,-964.0,211254.0
98989.61938476562,459.0,1691.0,-954.0,211264.0
99002.96044921875,460.0,1671.0,-942.0,211276.0
99016.3017578125,461.0,1652.0,-931.0,211287.0
99029.64306640625,462.0,1632.0,-923.0,211295.0
99042.98413085938,463.0,1609.0,-915.0,211303.0
99056.32543945312,464.0,1582.0,-908.0,211310.0
99069.66650390625,465.0,1550.0,-903.0,211315.0
99083.0078125,466.0,1517.0,-900.0,211318.0
99096.34912109375,467.0,1484.0,-894.0,211324.0
99109.69018554688,468.0,1456.0,-888.0,211330.0
99123.03149414062,469.0,1432.0,-879.0,211339.0
99136.37280273438,470.0,1413.0,-870.0,211348.0
99149.7138671875,471.0,1397.0,-859.0,211359.0
99163.05517578125,472.0,1388.0,-847.0,211371.0
99176.39624023438,473.0,1382.0,-834.0,211384.0
99189.73754882812,474.0,1376.0,-818.0,211400.0
99203.07885742188,475.0,1371.0,-802.0,211416.0
99216.419921875,476.0,1364.0,-787.0,211431.0
99229.76123046875,477.0,1355.0,-774.0,211444.0
99243.1025390625,478.0,1343.0,-764.0,211454.0
99256.44360351562,479.0,1327.0,-757.0,211461.0
99269.78491210938,480.0,1311.0,-751.0,211467.0
99283.12622070312,481.0,1295.0,-745.0,211473.0
99296.46728515625,482.0,1280.0,-737.0,211481.0
99309.80859375,483.0,1267.0,-729.0,211489.0
99323.14965820312,484.0,1255.0,-718.0,211500.0
99336.49096679688,485.0,1242.0,-708.0,211510.0
99349.83227539062,486.0,1227.0,-697.0,211521.0
99363.17333984375,487.0,1214.0,-689.0,211529.0
99376.5146484375,488.0,1200.0,-680.0,211538.0
99389.85595703125,489.0,1186.0,-672.0,211546.0
99403.19702148438,490.0,1174.0,-664.0,211554.0
99416.53833007812,491.0,1163.0,-655.0,211563.0
99429.87939453125,492.0,1153.0,-645.0,211573.0
99443.220703125,493.0,1143.0,-633.0,211585.0
99456.56201171875,494.0,1134.0,-622.0,211596.0
99469.90307617188,495.0,1125.0,-611.0,211607.0
99483.24438476562,496.0,1115.0,-601.0,211617.0
99496.58569335938,497.0,1103.0,-593.0,211625.0
99509.9267578125,498.0,1091.0,-586.0,211632.0
99523.26806640625,499.0,1079.0,-581.0,211637.0
99536.609375,500.0,1065.0,-576.0,211642.0
99549.95043945312,501.0,1050.0,-571.0,211647.0
99563.29174804688,502.0,1036.0,-568.0,211650.0
99576.6328125,503.0,1023.0,-567.0,211651.0
99589.97412109375,504.0,1010.0,-564.0,211654.0
99603.3154296875,505.0,997.0,-557.0,211661.0
99616.65649414062,506.0,982.0,-550.0,211668.0
99629.99780273438,507.0,968.0,-541.0,211677.0
99643.33911132812,508.0,953.0,-534.0,211684.0
99656.68017578125,509.0,936.0,-531.0,211687.0
99670.021484375,510.0,916.0,-531.0,211687.0
99683.36254882812,511.0,892.0,-534.0,211684.0
99696.70385742188,512.0,867.0,-538.0,211680.0
99710.04516601562,513.0,846.0,-542.0,211676.0
99723.38623046875,514.0,828.0,-543.0,211675.0
99736.7275390625,515.0,816.0,-542.0,211676.0
99750.06884765625,516.0,809.0,-538.0,211680.0
99763.40991210938,517.0,803.0,-530.0,211688.0
99776.75122070312,518.0,800.0,-520.0,211698.0
99790.09252929688,519.0,797.0,-509.0,211709.0
99803.43359375,520.0,791.0,-496.0,211722.0
99816.77490234375,521.0,785.0,-482.0,211736.0
99830.11596679688,522.0,779.0,-471.0,211747.0
99843.45727539062,523.0,774.0,-461.0,211757.0
99856.79858398438,524.0,769.0,-453.0,211765.0
99870.1396484375,525.0,763.0,-447.0,211771.0
99883.48095703125,526.0,757.0,-442.0,211776.0
99896.822265625,527.0,750.0,-438.0,211780.0
99910.16333007812,528.0,743.0,-432.0,211786.0
99923.50463867188,529.0,739.0,-427.0,211791.0
99936.845703125,530.0,736.0,-420.0,211798.0
99950.18701171875,531.0,730.0,-414.0,211804.0
99963.5283203125,532.0,724.0,-408.0,211810.0
99976.86938476562,533.0,717.0,-404.0,211814.0
99990.21069335938,534.0,709.0,-399.0,211819.0
100003.55200195312,535.0,702.0,-394.0,211824.0
100016.89306640625,536.0,697.0,-387.0,211831.0
100030.234375,537.0,692.0,-379.0,211839.0
100043.57568359375,538.0,686.0,-370.0,211848.0
100056.91674804688,539.0,680.0,-363.0,211855.0
100070.25805664062,540.0,672.0,-357.0,211861.0
100083.59912109375,541.0,662.0,-350.0,211868.0
100096.9404296875,542.0,652.0,-345.0,211873.0
100110.28173828125,543.0,643.0,-343.0,211875.0
100123.62280273438,544.0,632.0,-343.0,211875.0
100136.96411132812,545.0,624.0,-345.0,211873.0
100150.30541992188,546.0,616.0,-347.0,211871.0
100163.646484375,547.0,610.0,-348.0,211870.0
100176.98779296875,548.0,606.0,-347.0,211871.0
100190.32885742188,549.0,603.0,-343.0,211875.0
100203.67016601562,550.0,598.0,-338.0,211880.0
100217.01147460938,551.0,592.0,-333.0,211885.0
100230.3525390625,552.0,584.0,-327.0,211891.0
100243.69384765625,553.0,574.0,-320.0,211898.0
100257.03515625,554.0,562.0,-312.0,211906.0
100270.37622070312,555.0,548.0,-309.0,211909.0
100283.71752929688,556.0,530.0,-310.0,211908.0
100297.05883789062,557.0,511.0,-315.0,211903.0
100310.39990234375,558.0,494.0,-321.0,211897.0
100323.7412109375,559.0,479.0,-325.0,211893.0
100337.08227539062,560.0,470.0,-326.0,211892.0
100350.42358398438,561.0,464.0,-321.0,211897.0
100363.76489257812,562.0,464.0,-315.0,211903.0
100377.10595703125,563.0,464.0,-307.0,211911.0
100390.447265625,564.0,465.0,-298.0,211920.0
100403.78857421875,565.0,464.0,-291.0,211927.0
100417.12963867188,566.0,464.0,-283.0,211935.0
100430.47094726562,567.0,464.0,-277.0,211941.0
100443.81201171875,568.0,462.0,-272.0,211946.0
100457.1533203125,569.0,460.0,-270.0,211948.0
100470.49462890625,570.0,455.0,-269.0,211949.0
100483.83569335938,571.0,449.0,-267.0,211951.0
100497.17700195312,572.0,443.0,-265.0,211953.0
100510.51831054688,573.0,436.0,-262.0,211956.0
100523.859375,574.0,429.0,-257.0,211961.0
100537.20068359375,575.0,422.0,-250.0,211968.0
100550.54174804688,576.0,417.0,-242.0,211976.0
100563.88305664062,577.0,413.0,-235.0,211983.0
100577.22436523438,578.0,410.0,-229.0,211989.0
100590.5654296875,579.0,405.0,-227.0,211991.0
100603.90673828125,580.0,398.0,-225.0,211993.0
100617.248046875,581.0,389.0,-225.0,211993.0
100630.58911132812,582.0,379.0,-225.0,211993.0
100643.93041992188,583.0,372.0,-225.0,211993.0
100657.27172851562,584.0,368.0,-224.0,211994.0
100670.61279296875,585.0,366.0,-223.0,211995.0
100683.9541015625,586.0,365.0,-220.0,211998.0
100697.29516601562,587.0,364.0,-217.0,212001.0
100710.63647460938,588.0,364.0,-215.0,212003.0
100723.97778320312,589.0,361.0,-215.0,212003.0
100737.31884765625,590.0,357.0,-213.0,212005.0
100750.66015625,591.0,353.0,-212.0,212006.0
100764.00146484375,592.0,349.0,-208.0,212010.0
100777.34252929688,593.0,346.0,-205.0,212013.0
100790.68383789062,594.0,345.0,-199.0,212019.0
100804.02490234375,595.0,344.0,-194.0,212024.0
100817.3662109375,596.0,342.0,-191.0,212027.0
100830.70751953125,597.0,338.0,-189.0,212029.0
100844.04858398438,598.0,333.0,-191.0,212027.0
100857.38989257812,599.0,327.0,-192.0,212026.0
100870.73120117188,600.0,321.0,-192.0,212026.0
100884.072265625,601.0,310.0,-190.0,212028.0
100897.41357421875,602.0,297.0,-191.0,212027.0
100910.7548828125,603.0,281.0,-196.0,212022.0
100924.09594726562,604.0,264.0,-202.0,212016.0
100937.43725585938,605.0,250.0,-207.0,212011.0
100950.7783203125,606.0,239.0,-211.0,212007.0
100964.11962890625,607.0,234.0,-211.0,212007.0
100977.4609375,608.0,232.0,-207.0,212011.0
100990.80200195312,609.0,233.0,-200.0,212018.0
101004.14331054688,610.0,236.0,-192.0,212026.0
101017.48461914062,611.0,239.0,-182.0,212036.0
101030.82568359375,612.0,242.0,-173.0,212045.0
101044.1669921875,613.0,246.0,-165.0,212053.0
101057.50805664062,614.0,250.0,-159.0,212059.0
101070.84936523438,615.0,251.0,-155.0,212063.0
101084.19067382812,616.0,249.0,-153.0,212065.0
101097.53173828125,617.0,245.0,-151.0,212067.0
101110.873046875,618.0,241.0,-150.0,212068.0
101124.21435546875,619.0,240.0,-149.0,212069.0
101137.55541992188,620.0,241.0,-146.0,212072.0
101150.89672851562,621.0,242.0,-142.0,212076.0
101164.23803710938,622.0,242.0,-140.0,212078.0
101177.5791015625,623.0,241.0,-138.0,212080.0
101190.92041015625,624.0,239.0,-139.0,212079.0
101204.26147460938,625.0,234.0,-142.0,212076.0
101217.60278320312,626.0,228.0,-143.0,212075.0
101230.94409179688,627.0,222.0,-143.0,212075.0
101244.28515625,628.0,219.0,-142.0,212076.0
101257.62646484375,629.0,217.0,-139.0,212079.0
101270.9677734375,630.0,217.0,-135.0,212083.0
101284.30883789062,631.0,217.0,-132.0,212086.0
101297.65014648438,632.0,219.0,-128.0,212090.0
101310.9912109375,633.0,219.0,-125.0,212093.0
101324.33251953125,634.0,219.0,-123.0,212095.0
101337.673828125,635.0,221.0,-123.0,212095.0
101351.01489257812,636.0,221.0,-123.0,212095.0
101364.35620117188,637.0,221.0,-122.0,212096.0
101377.69750976562,638.0,222.0,-117.0,212101.0
101391.03857421875,639.0,225.0,-112.0,212106.0
101404.3798828125,640.0,226.0,-109.0,212109.0
101417.72119140625,641.0,227.0,-107.0,212111.0
101431.06225585938,642.0,229.0,-107.0,212111.0
101444.40356445312,643.0,229.0,-107.0,212111.0
101457.74462890625,644.0,230.0,-106.0,212112.0
101471.0859375,645.0,229.0,-104.0,212114.0
101484.42724609375,646.0,223.0,-107.0,212111.0
101497.76831054688,647.0,209.0,-113.0,212105.0
101511.10961914062,648.0,191.0,-121.0,212097.0
101524.45092773438,649.0,174.0,-128.0,212090.0
101537.7919921875,650.0,161.0,-135.0,212083.0
101551.13330078125,651.0,153.0,-139.0,212079.0
101564.47436523438,652.0,149.0,-140.0,212078.0
101577.81567382812,653.0,148.0,-141.0,212077.0
101591.15698242188,654.0,150.0,-139.0,212079.0
101604.498046875,655.0,155.0,-135.0,212083.0
101617.83935546875,656.0,163.0,-131.0,212087.0
101631.1806640625,657.0,170.0,-124.0,212094.0
101644.52172851562,658.0,177.0,-115.0,212103.0
101657.86303710938,659.0,180.0,-107.0,212111.0
101671.20434570312,660.0,180.0,-98.0,212120.0
101684.54541015625,661.0,177.0,-94.0,212124.0
101697.88671875,662.0,173.0,-90.0,212128.0
101711.22778320312,663.0,168.0,-87.0,212131.0
101724.56909179688,664.0,165.0,-85.0,212133.0
101737.91040039062,665.0,163.0,-84.0,212134.0
101751.25146484375,666.0,161.0,-84.0,212134.0
101764.5927734375,667.0,157.0,-85.0,212133.0
101777.93408203125,668.0,151.0,-87.0,212131.0
101791.27514648438,669.0,142.0,-88.0,212130.0
101804.61645507812,670.0,131.0,-89.0,212129.0
101817.95751953125,671.0,120.0,-87.0,212131.0
101831.298828125,672.0,112.0,-84.0,212134.0
101844.64013671875,673.0,107.0,-80.0,212138.0
101857.98120117188,674.0,106.0,-77.0,212141.0
101871.32250976562,675.0,109.0,-73.0,212145.0
101884.66381835938,676.0,113.0,-67.0,212151.0
101898.0048828125,677.0,117.0,-61.0,212157.0
101911.34619140625,678.0,121.0,-57.0,212161.0
101924.68725585938,679.0,124.0,-52.0,212166.0
101938.02856445312,680.0,124.0,-47.0,212171.0
101951.36987304688,681.0,126.0,-47.0,212171.0
101964.7109375,682.0,126.0,-48.0,212170.0
101978.05224609375,683.0,128.0,-53.0,212165.0
101991.3935546875,684.0,128.0,-56.0,212162.0
102004.73461914062,685.0,130.0,-59.0,212159.0
102018.07592773438,686.0,131.0,-61.0,212157.0
102031.41723632812,687.0,131.0,-60.0,212158.0
102044.75830078125,688.0,129.0,-58.0,212160.0
102058.099609375,689.0,127.0,-57.0,212161.0
102071.44067382812,690.0,124.0,-55.0,212163.0
102084.78198242188,691.0,120.0,-55.0,212163.0
102098.12329101562,692.0,112.0,-59.0,212159.0
102111.46435546875,693.0,100.0,-65.0,212153.0
102124.8056640625,694.0,86.0,-74.0,212144.0
102138.14697265625,695.0,70.0,-81.0,212137.0
102151.48803710938,696.0,55.0,-88.0,212130.0
102164.82934570312,697.0,46.0,-92.0,212126.0
102178.17041015625,698.0,44.0,-93.0,212125.0
102191.51171875,699.0,45.0,-92.0,212126.0
102204.85302734375,700.0,49.0,-90.0,212128.0
102218.19409179688,701.0,52.0,-90.0,212128.0
102231.53540039062,702.0,54.0,-89.0,212129.0
102244.87670898438,703.0,56.0,-86.0,212132.0
102258.2177734375,704.0,60.0,-81.0,212137.0
102271.55908203125,705.0,66.0,-77.0,212141.0
102284.900390625,706.0,70.0,-71.0,212147.0
102298.24145507812,707.0,73.0,-65.0,212153.0
102311.58276367188,708.0,76.0,-59.0,212159.0
102324.923828125,709.0,78.0,-55.0,212163.0
102338.26513671875,710.0,81.0,-51.0,212167.0
102351.6064453125,711.0,85.0,-47.0,212171.0
102364.94750976562,712.0,87.0,-47.0,212171.0
102378.28881835938,713.0,88.0,-49.0,212169.0
102391.63012695312,714.0,86.0,-52.0,212166.0
102404.97119140625,715.0,82.0,-54.0,212164.0
102418.3125,716.0,79.0,-57.0,212161.0
102431.65356445312,717.0,77.0,-61.0,212157.0
102444.99487304688,718.0,75.0,-64.0,212154.0
102458.33618164062,719.0,74.0,-65.0,212153.0
102471.67724609375,720.0,75.0,-67.0,212151.0
102485.0185546875,721.0,78.0,-67.0,212151.0
102498.35986328125,722.0,81.0,-63.0,212155.0
102511.70092773438,723.0,84.0,-58.0,212160.0
102525.04223632812,724.0,86.0,-52.0,212166.0
102538.38354492188,725.0,88.0,-44.0,212174.0
102551.724609375,726.0,88.0,-36.0,212182.0
102565.06591796875,727.0,88.0,-31.0,212187.0
102578.40698242188,728.0,87.0,-29.0,212189.0
102591.74829101562,729.0,86.0,-26.0,212192.0
102605.08959960938,730.0,85.0,-26.0,212192.0
102618.4306640625,731.0,86.0,-27.0,212191.0
102631.77197265625,732.0,89.0,-25.0,212193.0
102645.11328125,733.0,91.0,-25.0,212193.0
102658.45434570312,734.0,93.0,-24.0,212194.0
102671.79565429688,735.0,94.0,-23.0,212195.0
102685.13671875,736.0,95.0,-22.0,212196.0
102698.47802734375,737.0,95.0,-21.0,212197.0
102711.8193359375,738.0,94.0,-21.0,212197.0
102725.16040039062,739.0,88.0,-21.0,212197.0
102738.50170898438,740.0,76.0,-27.0,212191.0
102751.84301757812,741.0,59.0,-38.0,212180.0
102765.18408203125,742.0,40.0,-50.0,212168.0
102778.525390625,743.0,24.0,-63.0,212155.0
102791.86669921875,744.0,11.0,-71.0,212147.0
102805.20776367188,745.0,5.0,-74.0,212144.0
102818.54907226562,746.0,6.0,-74.0,212144.0
102831.89013671875,747.0,12.0,-71.0,212147.0
102845.2314453125,748.0,21.0,-66.0,212152.0
102858.57275390625,749.0,32.0,-58.0,212160.0
102871.91381835938,750.0,42.0,-49.0,212169.0
102885.25512695312,751.0,52.0,-42.0,212176.0
102898.59643554688,752.0,59.0,-37.0,212181.0
102911.9375,753.0,66.0,-35.0,212183.0
102925.27880859375,754.0,70.0,-33.0,212185.0
102938.61987304688,755.0,71.0,-33.0,212185.0
102951.96118164062,756.0,72.0,-32.0,212186.0
102965.30249023438,757.0,72.0,-32.0,212186.0
102978.6435546875,758.0,72.0,-32.0,212186.0
102991.98486328125,759.0,73.0,-30.0,212188.0
103005.326171875,760.0,73.0,-26.0,212192.0
103018.66723632812,761.0,74.0,-23.0,212195.0
103032.00854492188,762.0,73.0,-19.0,212199.0
103045.34985351562,763.0,71.0,-18.0,212200.0
103058.69091796875,764.0,67.0,-20.0,212198.0
103072.0322265625,765.0,63.0,-24.0,212194.0
103085.37329101562,766.0,60.0,-28.0,212190.0
103098.71459960938,767.0,60.0,-31.0,212187.0
103112.05590820312,768.0,60.0,-31.0,212187.0
103125.39697265625,769.0,63.0,-29.0,212189.0
103138.73828125,770.0,66.0,-27.0,212191.0
103152.07958984375,771.0,69.0,-26.0,212192.0
103165.42065429688,772.0,71.0,-24.0,212194.0
103178.76196289062,773.0,75.0,-22.0,212196.0
103192.10302734375,774.0,77.0,-20.0,212198.0
103205.4443359375,775.0,78.0,-19.0,212199.0
103218.78564453125,776.0,78.0,-18.0,212200.0
103232.12670898438,777.0,77.0,-17.0,212201.0
103245.46801757812,778.0,75.0,-15.0,212203.0
103258.80932617188,779.0,72.0,-15.0,212203.0
103272.150390625,780.0,71.0,-15.0,212203.0
103285.49169921875,781.0,72.0,-13.0,212205.0
103298.83276367188,782.0,74.0,-11.0,212207.0
103312.17407226562,783.0,76.0,-8.0,212210.0
103325.51538085938,784.0,78.0,-6.0,212212.0
103338.8564453125,785.0,79.0,-2.0,212216.0
103352.19775390625,786.0,80.0,1.0,212219.0
103365.5390625,787.0,80.0,2.0,212220.0
103378.88012695312,788.0,81.0,3.0,212221.0
103392.22143554688,789.0,82.0,3.0,212221.0
103405.56274414062,790.0,82.0,1.0,212219.0
103418.90380859375,791.0,77.0,-6.0,212212.0
103432.2451171875,792.0,66.0,-17.0,212201.0
103445.58618164062,793.0,49.0,-28.0,212190.0
103458.92749023438,794.0,31.0,-38.0,212180.0
103472.26879882812,795.0,15.0,-46.0,212172.0
103485.60986328125,796.0,4.0,-49.0,212169.0
103498.951171875,797.0,-2.0,-50.0,212168.0
103512.29248046875,798.0,-1.0,-48.0,212170.0
103525.63354492188,799.0,3.0,-46.0,212172.0
103538.97485351562,800.0,9.0,-41.0,212177.0
103552.31591796875,801.0,15.0,-35.0,212183.0
103565.6572265625,802.0,19.0,-29.0,212189.0
103578.99853515625,803.0,26.0,-25.0,212193.0
103592.33959960938,804.0,35.0,-23.0,212195.0
103605.68090820312,805.0,42.0,-20.0,212198.0
103619.02221679688,806.0,48.0,-17.0,212201.0
103632.36328125,807.0,51.0,-16.0,212202.0
103645.70458984375,808.0,53.0,-15.0,212203.0
103659.0458984375,809.0,52.0,-13.0,212205.0
103672.38696289062,810.0,52.0,-10.0,212208.0
103685.72827148438,811.0,49.0,-10.0,212208.0
103699.0693359375,812.0,43.0,-11.0,212207.0
103712.41064453125,813.0,38.0,-14.0,212204.0
103725.751953125,814.0,32.0,-16.0,212202.0
103739.09301757812,815.0,24.0,-17.0,212201.0
103752.43432617188,816.0,19.0,-17.0,212201.0
103765.77563476562,817.0,15.0,-18.0,212200.0
103779.11669921875,818.0,14.0,-19.0,212199.0
103792.4580078125,819.0,17.0,-18.0,212200.0
103805.79907226562,820.0,22.0,-14.0,212204.0
103819.14038085938,821.0,26.0,-10.0,212208.0
103832.48168945312,822.0,30.0,-7.0,212211.0
103845.82275390625,823.0,31.0,-3.0,212215.0
103859.1640625,824.0,34.0,-1.0,212217.0
103872.50537109375,825.0,36.0,1.0,212219.0
103885.84643554688,826.0,38.0,1.0,212219.0
103899.18774414062,827.0,40.0,1.0,212219.0
103912.52905273438,828.0,41.0,0.0,212218.0
103925.8701171875,829.0,44.0,-1.0,212217.0
103939.21142578125,830.0,46.0,-1.0,212217.0
103952.55249023438,831.0,47.0,0.0,212218.0
103965.89379882812,832.0,48.0,1.0,212219.0
103979.23510742188,833.0,50.0,3.0,212221.0
103992.576171875,834.0,52.0,5.0,212223.0
104005.91748046875,835.0,54.0,6.0,212224.0
104019.2587890625,836.0,56.0,4.0,212222.0
104032.59985351562,837.0,55.0,2.0,212220.0
104045.94116210938,838.0,52.0,-2.0,212216.0
104059.2822265625,839.0,49.0,-7.0,212211.0
104072.62353515625,840.0,44.0,-12.0,212206.0
104085.96484375,841.0,38.0,-17.0,212201.0
104099.30590820312,842.0,29.0,-23.0,212195.0
104112.64721679688,843.0,17.0,-30.0,212188.0
104125.98852539062,844.0,4.0,-38.0,212180.0
104139.32958984375,845.0,-6.0,-45.0,212173.0
104152.6708984375,846.0,-12.0,-50.0,212168.0
104166.01220703125,847.0,-15.0,-55.0,212163.0
104179.35327148438,848.0,-14.0,-56.0,212162.0
104192.69458007812,849.0,-9.0,-53.0,212165.0
104206.03564453125,850.0,-2.0,-49.0,212169.0
104219.376953125,851.0,6.0,-42.0,212176.0
104232.71826171875,852.0,14.0,-38.0,212180.0
104246.05932617188,853.0,22.0,-33.0,212185.0
104259.40063476562,854.0,30.0,-30.0,212188.0
104272.74194335938,855.0,35.0,-26.0,212192.0
104286.0830078125,856.0,38.0,-23.0,212195.0
104299.42431640625,857.0,40.0,-20.0,212198.0
104312.76538085938,858.0,42.0,-15.0,212203.0
104326.10668945312,859.0,45.0,-12.0,212206.0
104339.44799804688,860.0,46.0,-11.0,212207.0
104352.7890625,861.0,47.0,-11.0,212207.0
104366.13037109375,862.0,46.0,-12.0,212206.0
104379.4716796875,863.0,45.0,-15.0,212203.0
104392.81274414062,864.0,42.0,-18.0,212200.0
104406.15405273438,865.0,38.0,-20.0,212198.0
104419.49536132812,866.0,32.0,-22.0,212196.0
104432.83642578125,867.0,26.0,-24.0,212194.0
104446.177734375,868.0,21.0,-25.0,212193.0
104459.51879882812,869.0,18.0,-25.0,212193.0
104472.86010742188,870.0,18.0,-26.0,212192.0
104486.20141601562,871.0,21.0,-26.0,212192.0
104499.54248046875,872.0,25.0,-24.0,212194.0
104512.8837890625,873.0,28.0,-24.0,212194.0
104526.22509765625,874.0,32.0,-24.0,212194.0
104539.56616210938,875.0,36.0,-24.0,212194.0
104552.90747070312,876.0,37.0,-23.0,212195.0
104566.24853515625,877.0,39.0,-19.0,212199.0
104579.58984375,878.0,39.0,-15.0,212203.0
104592.93115234375,879.0,41.0,-11.0,212207.0
104606.27221679688,880.0,40.0,-6.0,212212.0
104619.61352539062,881.0,40.0,-1.0,212217.0
104632.95483398438,882.0,41.0,5.0,212223.0
104646.2958984375,883.0,41.0,10.0,212228.0
104659.63720703125,884.0,41.0,15.0,212233.0
104672.97827148438,885.0,40.0,18.0,212236.0
104686.31958007812,886.0,41.0,23.0,212241.0
104699.66088867188,887.0,41.0,26.0,212244.0
104713.001953125,888.0,43.0,28.0,212246.0
104726.34326171875,889.0,43.0,27.0,212245.0
104739.6845703125,890.0,41.0,26.0,212244.0
104753.02563476562,891.0,33.0,20.0,212238.0
104766.36694335938,892.0,21.0,9.0,212227.0
104779.70825195312,893.0,5.0,-3.0,212215.0
104793.04931640625,894.0,-10.0,-16.0,212202.0
104806.390625,895.0,-21.0,-25.0,212193.0
104819.73168945312,896.0,-29.0,-32.0,212186.0
104833.07299804688,897.0,-35.0,-36.0,212182.0
104846.41430664062,898.0,-36.0,-37.0,212181.0
104859.75537109375,899.0,-35.0,-38.0,212180.0
104873.0966796875,900.0,-31.0,-35.0,212183.0
104886.43798828125,901.0,-26.0,-33.0,212185.0
104899.77905273438,902.0,-21.0,-30.0,212188.0
104913.12036132812,903.0,-16.0,-26.0,212192.0
104926.46142578125,904.0,-11.0,-23.0,212195.0
104939.802734375,905.0,-7.0,-22.0,212196.0
104953.14404296875,906.0,-6.0,-19.0,212199.0
104966.48510742188,907.0,-4.0,-19.0,212199.0
104979.82641601562,908.0,-2.0,-18.0,212200.0
104993.16772460938,909.0,0.0,-17.0,212201.0
105006.5087890625,910.0,2.0,-15.0,212203.0
105019.85009765625,911.0,2.0,-14.0,212204.0
105033.19140625,912.0,-1.0,-14.0,212204.0
105046.53247070312,913.0,-7.0,-16.0,212202.0
105059.87377929688,914.0,-13.0,-18.0,212200.0
105073.21484375,915.0,-18.0,-21.0,212197.0
105086.55615234375,916.0,-21.0,-21.0,212197.0
105099.8974609375,917.0,-23.0,-21.0,212197.0
105113.23852539062,918.0,-22.0,-20.0,212198.0
105126.57983398438,919.0,-18.0,-18.0,212200.0
105139.92114257812,920.0,-10.0,-15.0,212203.0
105153.26220703125,921.0,-3.0,-14.0,212204.0
105166.603515625,922.0,4.0,-11.0,212207.0
105179.94458007812,923.0,9.0,-9.0,212209.0
105193.28588867188,924.0,14.0,-7.0,212211.0
105206.62719726562,925.0,16.0,-5.0,212213.0
105219.96826171875,926.0,18.0,-2.0,212216.0
105233.3095703125,927.0,19.0,3.0,212221.0
105246.65087890625,928.0,21.0,7.0,212225.0
105259.99194335938,929.0,24.0,9.0,212227.0
105273.33325195312,930.0,25.0,11.0,212229.0
105286.67456054688,931.0,27.0,11.0,212229.0
105300.015625,932.0,29.0,11.0,212229.0
105313.35693359375,933.0,30.0,10.0,212228.0
105326.69799804688,934.0,31.0,8.0,212226.0
105340.03930664062,935.0,31.0,6.0,212224.0
105353.38061523438,936.0,30.0,5.0,212223.0
105366.7216796875,937.0,30.0,3.0,212221.0
105380.06298828125,938.0,30.0,4.0,212222.0
105393.404296875,939.0,29.0,6.0,212224.0
105406.74536132812,940.0,29.0,9.0,212227.0
105420.08666992188,941.0,27.0,13.0,212231.0
105433.427734375,942.0,22.0,13.0,212231.0
105446.76904296875,943.0,14.0,10.0,212228.0
105460.1103515625,944.0,2.0,2.0,212220.0
105473.45141601562,945.0,-11.0,-7.0,212211.0
105486.79272460938,946.0,-24.0,-17.0,212201.0
105500.13403320312,947.0,-34.0,-25.0,212193.0
105513.47509765625,948.0,-38.0,-32.0,212186.0
105526.81640625,949.0,-38.0,-36.0,212182.0
105540.15771484375,950.0,-33.0,-36.0,212182.0
105553.49877929688,951.0,-28.0,-30.0,212188.0
105566.84008789062,952.0,-21.0,-22.0,212196.0
105580.18115234375,953.0,-13.0,-13.0,212205.0
105593.5224609375,954.0,-7.0,-6.0,212212.0
105606.86376953125,955.0,-2.0,0.0,212218.0
105620.20483398438,956.0,2.0,4.0,212222.0
105633.54614257812,957.0,4.0,6.0,212224.0
105646.88745117188,958.0,4.0,6.0,212224.0
105660.228515625,959.0,4.0,6.0,212224.0
105673.56982421875,960.0,3.0,5.0,212223.0
105686.91088867188,961.0,3.0,6.0,212224.0
105700.25219726562,962.0,4.0,6.0,212224.0
105713.59350585938,963.0,5.0,6.0,212224.0
105726.9345703125,964.0,4.0,7.0,212225.0
105740.27587890625,965.0,3.0,6.0,212224.0
105753.6171875,966.0,0.0,4.0,212222.0
105766.95825195312,967.0,-1.0,3.0,212221.0
105780.29956054688,968.0,-1.0,2.0,212220.0
105793.64086914062,969.0,1.0,1.0,212219.0
105806.98193359375,970.0,3.0,0.0,212218.0
105820.3232421875,971.0,5.0,0.0,212218.0
105833.66430664062,972.0,6.0,1.0,212219.0
105847.00561523438,973.0,9.0,2.0,212220.0
105860.34692382812,974.0,13.0,5.0,212223.0
105873.68798828125,975.0,17.0,7.0,212225.0
105887.029296875,976.0,20.0,8.0,212226.0
105900.37060546875,977.0,23.0,8.0,212226.0
105913.71166992188,978.0,25.0,6.0,212224.0
105927.05297851562,979.0,28.0,5.0,212223.0
105940.39404296875,980.0,29.0,6.0,212224.0
105953.7353515625,981.0,28.0,6.0,212224.0
105967.07666015625,982.0,29.0,7.0,212225.0
105980.41772460938,983.0,31.0,6.0,212224.0
105993.75903320312,984.0,32.0,5.0,212223.0
106007.10034179688,985.0,35.0,3.0,212221.0
106020.44140625,986.0,37.0,1.0,212219.0
106033.78271484375,987.0,37.0,1.0,212219.0
106047.12377929688,988.0,34.0,3.0,212221.0
106060.46508789062,989.0,27.0,6.0,212224.0
106073.80639648438,990.0,22.0,8.0,212226.0
106087.1474609375,991.0,20.0,8.0,212226.0
106100.48876953125,992.0,18.0,9.0,212227.0
106113.830078125,993.0,16.0,9.0,212227.0
106127.17114257812,994.0,13.0,6.0,212224.0
106140.51245117188,995.0,7.0,1.0,212219.0
106153.85375976562,996.0,-6.0,-9.0,212209.0
106167.19482421875,997.0,-24.0,-19.0,212199.0
106180.5361328125,998.0,-43.0,-32.0,212186.0
106193.87719726562,999.0,-58.0,-43.0,212175.0
106207.21850585938,1000.0,-68.0,-50.0,212168.0
106220.55981445312,1001.0,-74.0,-56.0,212162.0
106233.90087890625,1002.0,-74.0,-57.0,212161.0
106247.2421875,1003.0,-69.0,-54.0,212164.0
106260.58349609375,1004.0,-62.0,-49.0,212169.0
106273.92456054688,1005.0,-54.0,-42.0,212176.0
106287.26586914062,1006.0,-47.0,-38.0,212180.0
106300.60693359375,1007.0,-39.0,-34.0,212184.0
106313.9482421875,1008.0,-32.0,-33.0,212185.0
106327.28955078125,1009.0,-25.0,-29.0,212189.0
106340.63061523438,1010.0,-21.0,-25.0,212193.0
106353.97192382812,1011.0,-19.0,-21.0,212197.0
106367.31323242188,1012.0,-19.0,-15.0,212203.0
106380.654296875,1013.0,-18.0,-7.0,212211.0
106393.99560546875,1014.0,-17.0,-1.0,212217.0
106407.3369140625,1015.0,-14.0,1.0,212219.0
106420.67797851562,1016.0,-12.0,-1.0,212217.0
106434.01928710938,1017.0,-13.0,-4.0,212214.0
106447.3603515625,1018.0,-14.0,-9.0,212209.0
106460.70166015625,1019.0,-18.0,-14.0,212204.0
106474.04296875,1020.0,-23.0,-18.0,212200.0
106487.38403320312,1021.0,-28.0,-19.0,212199.0
106500.72534179688,1022.0,-30.0,-18.0,212200.0
106514.06665039062,1023.0,-29.0,-17.0,212201.0
106527.40771484375,1024.0,-25.0,-15.0,212203.0
106540.7490234375,1025.0,-19.0,-11.0,212207.0
106554.09008789062,1026.0,-13.0,-6.0,212212.0
106567.43139648438,1027.0,-8.0,-1.0,212217.0
106580.77270507812,1028.0,-5.0,2.0,212220.0
106594.11376953125,1029.0,-6.0,2.0,212220.0
106607.455078125,1030.0,-5.0,1.0,212219.0
106620.79638671875,1031.0,-2.0,0.0,212218.0
106634.13745117188,1032.0,2.0,0.0,212218.0
106647.47875976562,1033.0,6.0,1.0,212219.0
106660.82006835938,1034.0,8.0,3.0,212221.0
106674.1611328125,1035.0,9.0,4.0,212222.0
106687.50244140625,1036.0,11.0,6.0,212224.0
106700.84350585938,1037.0,12.0,8.0,212226.0
106714.18481445312,1038.0,12.0,10.0,212228.0
106727.52612304688,1039.0,13.0,12.0,212230.0
106740.8671875,1040.0,12.0,13.0,212231.0
106754.20849609375,1041.0,14.0,14.0,212232.0
106767.5498046875,1042.0,17.0,15.0,212233.0
106780.89086914062,1043.0,20.0,15.0,212233.0
106794.23217773438,1044.0,22.0,16.0,212234.0
106807.5732421875,1045.0,24.0,15.0,212233.0
106820.91455078125,1046.0,24.0,14.0,212232.0
106834.255859375,1047.0,26.0,12.0,212230.0
106847.59692382812,1048.0,27.0,11.0,212229.0
106860.93823242188,1049.0,24.0,7.0,212225.0
106874.27954101562,1050.0,20.0,4.0,212222.0
106887.62060546875,1051.0,11.0,-2.0,212216.0
106900.9619140625,1052.0,-3.0,-10.0,212208.0
106914.30322265625,1053.0,-22.0,-20.0,212198.0
106927.64428710938,1054.0,-39.0,-28.0,212190.0
106940.98559570312,1055.0,-50.0,-34.0,212184.0
106954.32666015625,1056.0,-56.0,-37.0,212181.0
106967.66796875,1057.0,-54.0,-35.0,212183.0
106981.00927734375,1058.0,-47.0,-31.0,212187.0
106994.35034179688,1059.0,-39.0,-25.0,212193.0
107007.69165039062,1060.0,-32.0,-20.0,212198.0
107021.03295898438,1061.0,-26.0,-13.0,212205.0
107034.3740234375,1062.0,-21.0,-6.0,212212.0
107047.71533203125,1063.0,-17.0,0.0,212218.0
107061.05639648438,1064.0,-11.0,5.0,212223.0
107074.39770507812,1065.0,-8.0,9.0,212227.0
107087.73901367188,1066.0,-6.0,12.0,212230.0
107101.080078125,1067.0,-6.0,15.0,212233.0
107114.42138671875,1068.0,-6.0,18.0,212236.0
107127.7626953125,1069.0,-5.0,22.0,212240.0
107141.10375976562,1070.0,-3.0,24.0,212242.0
107154.44506835938,1071.0,0.0,26.0,212244.0
107167.78637695312,1072.0,0.0,26.0,212244.0
107181.12744140625,1073.0,-2.0,24.0,212242.0
107194.46875,1074.0,-5.0,17.0,212235.0
107207.80981445312,1075.0,-7.0,10.0,212228.0
107221.15112304688,1076.0,-10.0,2.0,212220.0
107234.49243164062,1077.0,-11.0,-2.0,212216.0
107247.83349609375,1078.0,-10.0,-5.0,212213.0
107261.1748046875,1079.0,-7.0,-6.0,212212.0
107274.51611328125,1080.0,-4.0,-8.0,212210.0
107287.85717773438,1081.0,-1.0,-8.0,212210.0
107301.19848632812,1082.0,4.0,-6.0,212212.0
107314.53955078125,1083.0,9.0,-1.0,212217.0
107327.880859375,1084.0,13.0,5.0,212223.0
107341.22216796875,1085.0,17.0,11.0,212229.0
107354.56323242188,1086.0,18.0,13.0,212231.0
107367.90454101562,1087.0,19.0,13.0,212231.0
107381.24584960938,1088.0,19.0,13.0,212231.0
107394.5869140625,1089.0,18.0,13.0,212231.0
107407.92822265625,1090.0,18.0,13.0,212231.0
107421.26928710938,1091.0,19.0,12.0,212230.0
107434.61059570312,1092.0,20.0,9.0,212227.0
107447.95190429688,1093.0,22.0,8.0,212226.0
107461.29296875,1094.0,25.0,8.0,212226.0
107474.63427734375,1095.0,26.0,12.0,212230.0
107487.9755859375,1096.0,28.0,17.0,212235.0
107501.31665039062,1097.0,28.0,21.0,212239.0
107514.65795898438,1098.0,27.0,24.0,212242.0
107527.99926757812,1099.0,27.0,22.0,212240.0
107541.34033203125,1100.0,27.0,19.0,212237.0
107554.681640625,1101.0,27.0,15.0,212233.0
107568.02270507812,1102.0,27.0,12.0,212230.0
107581.36401367188,1103.0,24.0,8.0,212226.0
107594.70532226562,1104.0,15.0,4.0,212222.0
107608.04638671875,1105.0,1.0,-4.0,212214.0
107621.3876953125,1106.0,-15.0,-14.0,212204.0
107634.72900390625,1107.0,-32.0,-24.0,212194.0
107648.07006835938,1108.0,-49.0,-33.0,212185.0
107661.41137695312,1109.0,-60.0,-38.0,212180.0
107674.75244140625,1110.0,-67.0,-39.0,212179.0
107688.09375,1111.0,-68.0,-37.0,212181.0
107701.43505859375,1112.0,-65.0,-31.0,212187.0
107714.77612304688,1113.0,-57.0,-25.0,212193.0
107728.11743164062,1114.0,-47.0,-20.0,212198.0
107741.45874023438,1115.0,-36.0,-14.0,212204.0
107754.7998046875,1116.0,-28.0,-10.0,212208.0
107768.14111328125,1117.0,-22.0,-7.0,212211.0
107781.482421875,1118.0,-18.0,-8.0,212210.0
107794.82348632812,1119.0,-15.0,-10.0,212208.0
107808.16479492188,1120.0,-14.0,-11.0,212207.0
107821.505859375,1121.0,-11.0,-11.0,212207.0
107834.84716796875,1122.0,-5.0,-9.0,212209.0
107848.1884765625,1123.0,1.0,-7.0,212211.0
107861.52954101562,1124.0,6.0,-4.0,212214.0
107874.87084960938,1125.0,8.0,-4.0,212214.0
107888.21215820312,1126.0,6.0,-4.0,212214.0
107901.55322265625,1127.0,0.0,-6.0,212212.0
107914.89453125,1128.0,-8.0,-10.0,212208.0
107928.23559570312,1129.0,-14.0,-14.0,212204.0
107941.57690429688,1130.0,-22.0,-18.0,212200.0
107954.91821289062,1131.0,-27.0,-20.0,212198.0
107968.25927734375,1132.0,-30.0,-20.0,212198.0
107981.6005859375,1133.0,-27.0,-19.0,212199.0
107994.94189453125,1134.0,-23.0,-19.0,212199.0
108008.28295898438,1135.0,-17.0,-19.0,212199.0
108021.62426757812,1136.0,-8.0,-19.0,212199.0
108034.96557617188,1137.0,4.0,-17.0,212201.0
108048.306640625,1138.0,13.0,-14.0,212204.0
108061.64794921875,1139.0,22.0,-10.0,212208.0
108074.98901367188,1140.0,28.0,-5.0,212213.0
108088.33032226562,1141.0,31.0,0.0,212218.0
108101.67163085938,1142.0,29.0,3.0,212221.0
108115.0126953125,1143.0,27.0,4.0,212222.0
108128.35400390625,1144.0,26.0,2.0,212220.0
108141.6953125,1145.0,23.0,-1.0,212217.0
108155.03637695312,1146.0,21.0,-5.0,212213.0
108168.37768554688,1147.0,20.0,-8.0,212210.0
108181.71875,1148.0,20.0,-10.0,212208.0
108195.06005859375,1149.0,18.0,-10.0,212208.0
108208.4013671875,1150.0,19.0,-9.0,212209.0
108221.74243164062,1151.0,22.0,-8.0,212210.0
108235.08374023438,1152.0,25.0,-8.0,212210.0
108248.42504882812,1153.0,26.0,-8.0,212210.0
108261.76611328125,1154.0,23.0,-12.0,212206.0
108275.107421875,1155.0,15.0,-19.0,212199.0
108288.44873046875,1156.0,1.0,-28.0,212190.0
108301.78979492188,1157.0,-15.0,-37.0,212181.0
108315.13110351562,1158.0,-29.0,-46.0,212172.0
108328.47216796875,1159.0,-40.0,-52.0,212166.0
108341.8134765625,1160.0,-46.0,-55.0,212163.0
108355.15478515625,1161.0,-49.0,-56.0,212162.0
108368.49584960938,1162.0,-46.0,-53.0,212165.0
108381.83715820312,1163.0,-40.0,-48.0,212170.0
108395.17846679688,1164.0,-31.0,-40.0,212178.0
108408.51953125,1165.0,-21.0,-34.0,212184.0
108421.86083984375,1166.0,-10.0,-27.0,212191.0
108435.20190429688,1167.0,-4.0,-22.0,212196.0
108448.54321289062,1168.0,0.0,-16.0,212202.0
108461.88452148438,1169.0,4.0,-12.0,212206.0
108475.2255859375,1170.0,6.0,-8.0,212210.0
108488.56689453125,1171.0,6.0,-6.0,212212.0
108501.908203125,1172.0,5.0,-6.0,212212.0
108515.24926757812,1173.0,4.0,-8.0,212210.0
108528.59057617188,1174.0,4.0,-11.0,212207.0
108541.93188476562,1175.0,6.0,-15.0,212203.0
108555.27294921875,1176.0,8.0,-17.0,212201.0
108568.6142578125,1177.0,9.0,-17.0,212201.0
108581.95532226562,1178.0,8.0,-15.0,212203.0
108595.29663085938,1179.0,8.0,-15.0,212203.0
108608.63793945312,1180.0,7.0,-15.0,212203.0
108621.97900390625,1181.0,5.0,-15.0,212203.0
108635.3203125,1182.0,3.0,-13.0,212205.0
108648.66162109375,1183.0,3.0,-10.0,212208.0
108662.00268554688,1184.0,5.0,-8.0,212210.0
108675.34399414062,1185.0,9.0,-6.0,212212.0
108688.68505859375,1186.0,13.0,-7.0,212211.0
108702.0263671875,1187.0,17.0,-8.0,212210.0
108715.36767578125,1188.0,18.0,-8.0,212210.0
108728.70874023438,1189.0,20.0,-4.0,212214.0
108742.05004882812,1190.0,22.0,1.0,212219.0
108755.39135742188,1191.0,25.0,6.0,212224.0
108768.732421875,1192.0,27.0,10.0,212228.0
108782.07373046875,1193.0,32.0,12.0,212230.0
108795.41479492188,1194.0,37.0,12.0,212230.0
108808.75610351562,1195.0,40.0,11.0,212229.0
108822.09741210938,1196.0,41.0,10.0,212228.0
108835.4384765625,1197.0,41.0,9.0,212227.0
108848.77978515625,1198.0,42.0,7.0,212225.0
108862.12109375,1199.0,43.0,8.0,212226.0
108875.46215820312,1200.0,45.0,10.0,212228.0
108888.80346679688,1201.0,47.0,11.0,212229.0
108902.14477539062,1202.0,49.0,13.0,212231.0
108915.48583984375,1203.0,50.0,16.0,212234.0
108928.8271484375,1204.0,52.0,19.0,212237.0
108942.16821289062,1205.0,50.0,20.0,212238.0
108955.50952148438,1206.0,42.0,16.0,212234.0
108968.85083007812,1207.0,29.0,7.0,212225.0
108982.19189453125,1208.0,13.0,-6.0,212212.0
108995.533203125,1209.0,-6.0,-19.0,212199.0
109008.87451171875,1210.0,-23.0,-29.0,212189.0
109022.21557617188,1211.0,-36.0,-36.0,212182.0
109035.55688476562,1212.0,-44.0,-40.0,212178.0
109048.89794921875,1213.0,-46.0,-38.0,212180.0
109062.2392578125,1214.0,-45.0,-35.0,212183.0
109075.58056640625,1215.0,-39.0,-31.0,212187.0
109088.92163085938,1216.0,-32.0,-27.0,212191.0
109102.26293945312,1217.0,-24.0,-24.0,212194.0
109115.60424804688,1218.0,-18.0,-21.0,212197.0
109128.9453125,1219.0,-12.0,-17.0,212201.0
109142.28662109375,1220.0,-8.0,-15.0,212203.0
109155.6279296875,1221.0,-7.0,-13.0,212205.0
109168.96899414062,1222.0,-6.0,-10.0,212208.0
109182.31030273438,1223.0,-4.0,-6.0,212212.0
109195.6513671875,1224.0,-1.0,-1.0,212217.0
109208.99267578125,1225.0,2.0,2.0,212220.0
109222.333984375,1226.0,4.0,3.0,212221.0
109235.67504882812,1227.0,7.0,2.0,212220.0
109249.01635742188,1228.0,8.0,-1.0,212217.0
109262.35766601562,1229.0,7.0,-5.0,212213.0
109275.69873046875,1230.0,6.0,-7.0,212211.0
109289.0400390625,1231.0,6.0,-6.0,212212.0
109302.38110351562,1232.0,5.0,-4.0,212214.0
109315.72241210938,1233.0,5.0,-2.0,212216.0
109329.06372070312,1234.0,6.0,-2.0,212216.0
109342.40478515625,1235.0,10.0,-2.0,212216.0
109355.74609375,1236.0,15.0,0.0,212218.0
109369.08740234375,1237.0,20.0,2.0,212220.0
109382.42846679688,1238.0,25.0,7.0,212225.0
109395.76977539062,1239.0,28.0,10.0,212228.0
109409.11108398438,1240.0,32.0,12.0,212230.0
109422.4521484375,1241.0,36.0,14.0,212232.0
109435.79345703125,1242.0,38.0,18.0,212236.0
109449.13452148438,1243.0,40.0,22.0,212240.0
109462.47583007812,1244.0,41.0,26.0,212244.0
109475.81713867188,1245.0,42.0,28.0,212246.0
109489.158203125,1246.0,42.0,32.0,212250.0
109502.49951171875,1247.0,44.0,37.0,212255.0
109515.8408203125,1248.0,45.0,42.0,212260.0
109529.18188476562,1249.0,47.0,48.0,212266.0
109542.52319335938,1250.0,48.0,52.0,212270.0
109555.8642578125,1251.0,51.0,53.0,212271.0
109569.20556640625,1252.0,52.0,52.0,212270.0
109582.546875,1253.0,53.0,50.0,212268.0
109595.88793945312,1254.0,55.0,48.0,212266.0
109609.22924804688,1255.0,56.0,45.0,212263.0
109622.57055664062,1256.0,53.0,41.0,212259.0
109635.91162109375,1257.0,42.0,32.0,212250.0
109649.2529296875,1258.0,23.0,21.0,212239.0
109662.59423828125,1259.0,4.0,8.0,212226.0
109675.93530273438,1260.0,-12.0,-3.0,212215.0
109689.27661132812,1261.0,-26.0,-12.0,212206.0
109702.61767578125,1262.0,-34.0,-17.0,212201.0
109715.958984375,1263.0,-38.0,-19.0,212199.0
109729.30029296875,1264.0,-36.0,-18.0,212200.0
109742.64135742188,1265.0,-30.0,-15.0,212203.0
109755.98266601562,1266.0,-23.0,-10.0,212208.0
109769.32397460938,1267.0,-16.0,-8.0,212210.0
109782.6650390625,1268.0,-11.0,-5.0,212213.0
109796.00634765625,1269.0,-4.0,-3.0,212215.0
109809.34741210938,1270.0,2.0,0.0,212218.0
109822.68872070312,1271.0,8.0,2.0,212220.0
109836.03002929688,1272.0,11.0,3.0,212221.0
109849.37109375,1273.0,13.0,4.0,212222.0
109862.71240234375,1274.0,14.0,3.0,212221.0
109876.0537109375,1275.0,11.0,3.0,212221.0
109889.39477539062,1276.0,11.0,3.0,212221.0
109902.73608398438,1277.0,12.0,4.0,212222.0
109916.07739257812,1278.0,14.0,7.0,212225.0
109929.41845703125,1279.0,16.0,8.0,212226.0
109942.759765625,1280.0,17.0,8.0,212226.0
109956.10083007812,1281.0,15.0,8.0,212226.0
109969.44213867188,1282.0,13.0,7.0,212225.0
109982.78344726562,1283.0,10.0,6.0,212224.0
109996.12451171875,1284.0,7.0,5.0,212223.0
110009.4658203125,1285.0,5.0,5.0,212223.0
110022.80712890625,1286.0,4.0,6.0,212224.0
110036.14819335938,1287.0,6.0,8.0,212226.0
110049.48950195312,1288.0,9.0,10.0,212228.0
110062.83056640625,1289.0,12.0,11.0,212229.0
110076.171875,1290.0,14.0,9.0,212227.0
110089.51318359375,1291.0,17.0,7.0,212225.0
110102.85424804688,1292.0,21.0,6.0,212224.0
110116.19555664062,1293.0,25.0,6.0,212224.0
110129.53686523438,1294.0,27.0,5.0,212223.0
110142.8779296875,1295.0,26.0,8.0,212226.0
110156.21923828125,1296.0,24.0,12.0,212230.0
110169.56030273438,1297.0,24.0,18.0,212236.0
110182.90161132812,1298.0,25.0,24.0,212242.0
110196.24291992188,1299.0,26.0,29.0,212247.0
110209.583984375,1300.0,30.0,31.0,212249.0
110222.92529296875,1301.0,34.0,32.0,212250.0
110236.2666015625,1302.0,34.0,33.0,212251.0
110249.60766601562,1303.0,35.0,29.0,212247.0
110262.94897460938,1304.0,35.0,26.0,212244.0
110276.29028320312,1305.0,35.0,23.0,212241.0
110289.63134765625,1306.0,32.0,19.0,212237.0
110302.97265625,1307.0,22.0,12.0,212230.0
110316.31372070312,1308.0,7.0,1.0,212219.0
110329.65502929688,1309.0,-12.0,-10.0,212208.0
110342.99633789062,1310.0,-28.0,-19.0,212199.0
110356.33740234375,1311.0,-41.0,-25.0,212193.0
110369.6787109375,1312.0,-48.0,-25.0,212193.0
110383.02001953125,1313.0,-51.0,-24.0,212194.0
110396.36108398438,1314.0,-48.0,-20.0,212198.0
110409.70239257812,1315.0,-41.0,-15.0,212203.0
110423.04345703125,1316.0,-33.0,-8.0,212210.0
110436.384765625,1317.0,-24.0,-4.0,212214.0
110449.72607421875,1318.0,-14.0,-2.0,212216.0
110463.06713867188,1319.0,-6.0,1.0,212219.0
110476.40844726562,1320.0,0.0,3.0,212221.0
110489.74975585938,1321.0,3.0,4.0,212222.0
110503.0908203125,1322.0,5.0,5.0,212223.0
110516.43212890625,1323.0,5.0,5.0,212223.0
110529.7734375,1324.0,6.0,5.0,212223.0
110543.11450195312,1325.0,7.0,4.0,212222.0
110556.45581054688,1326.0,9.0,4.0,212222.0
110569.796875,1327.0,11.0,4.0,212222.0
110583.13818359375,1328.0,12.0,3.0,212221.0
110596.4794921875,1329.0,9.0,-2.0,212216.0
110609.82055664062,1330.0,5.0,-5.0,212213.0
110623.16186523438,1331.0,2.0,-11.0,212207.0
110636.50317382812,1332.0,-1.0,-15.0,212203.0
110649.84423828125,1333.0,-3.0,-17.0,212201.0
110663.185546875,1334.0,-4.0,-17.0,212201.0
110676.52661132812,1335.0,-3.0,-16.0,212202.0
110689.86791992188,1336.0,1.0,-12.0,212206.0
110703.20922851562,1337.0,6.0,-9.0,212209.0
110716.55029296875,1338.0,10.0,-7.0,212211.0
110729.8916015625,1339.0,14.0,-4.0,212214.0
110743.23291015625,1340.0,16.0,1.0,212219.0
110756.57397460938,1341.0,17.0,6.0,212224.0
110769.91528320312,1342.0,18.0,10.0,212228.0
110783.25659179688,1343.0,18.0,13.0,212231.0
110796.59765625,1344.0,20.0,16.0,212234.0
110809.93896484375,1345.0,23.0,17.0,212235.0
110823.28002929688,1346.0,25.0,19.0,212237.0
110836.62133789062,1347.0,24.0,19.0,212237.0
110849.96264648438,1348.0,24.0,19.0,212237.0
110863.3037109375,1349.0,24.0,20.0,212238.0
110876.64501953125,1350.0,25.0,20.0,212238.0
110889.986328125,1351.0,24.0,21.0,212239.0
110903.32739257812,1352.0,26.0,21.0,212239.0
110916.66870117188,1353.0,26.0,23.0,212241.0
110930.009765625,1354.0,23.0,23.0,212241.0
110943.35107421875,1355.0,20.0,22.0,212240.0
110956.6923828125,1356.0,11.0,16.0,212234.0
110970.03344726562,1357.0,-4.0,6.0,212224.0
110983.37475585938,1358.0,-22.0,-5.0,212213.0
110996.71606445312,1359.0,-40.0,-17.0,212201.0
111010.05712890625,1360.0,-54.0,-26.0,212192.0
111023.3984375,1361.0,-63.0,-34.0,212184.0
111036.73974609375,1362.0,-65.0,-38.0,212180.0
111050.08081054688,1363.0,-64.0,-41.0,212177.0
111063.42211914062,1364.0,-59.0,-39.0,212179.0
111076.76318359375,1365.0,-54.0,-37.0,212181.0
111090.1044921875,1366.0,-46.0,-33.0,212185.0
111103.44580078125,1367.0,-39.0,-29.0,212189.0
111116.78686523438,1368.0,-34.0,-28.0,212190.0
111130.12817382812,1369.0,-31.0,-27.0,212191.0
111143.46948242188,1370.0,-29.0,-28.0,212190.0
111156.810546875,1371.0,-28.0,-28.0,212190.0
111170.15185546875,1372.0,-26.0,-26.0,212192.0
111183.49291992188,1373.0,-23.0,-24.0,212194.0
111196.83422851562,1374.0,-21.0,-21.0,212197.0
111210.17553710938,1375.0,-17.0,-17.0,212201.0
111223.5166015625,1376.0,-14.0,-13.0,212205.0
111236.85791015625,1377.0,-9.0,-10.0,212208.0
111250.19921875,1378.0,-8.0,-8.0,212210.0
111263.54028320312,1379.0,-10.0,-10.0,212208.0
111276.88159179688,1380.0,-14.0,-15.0,212203.0
111290.22290039062,1381.0,-18.0,-22.0,212196.0
111303.56396484375,1382.0,-18.0,-26.0,212192.0
111316.9052734375,1383.0,-18.0,-27.0,212191.0
111330.24633789062,1384.0,-18.0,-27.0,212191.0
111343.58764648438,1385.0,-18.0,-25.0,212193.0
111356.92895507812,1386.0,-18.0,-22.0,212196.0
111370.27001953125,1387.0,-19.0,-20.0,212198.0
111383.611328125,1388.0,-17.0,-17.0,212201.0
111396.95263671875,1389.0,-16.0,-14.0,212204.0
111410.29370117188,1390.0,-13.0,-10.0,212208.0
111423.63500976562,1391.0,-12.0,-6.0,212212.0
111436.97607421875,1392.0,-10.0,-2.0,212216.0
111450.3173828125,1393.0,-9.0,2.0,212220.0
111463.65869140625,1394.0,-8.0,5.0,212223.0
111476.99975585938,1395.0,-5.0,7.0,212225.0
111490.34106445312,1396.0,-2.0,6.0,212224.0
111503.68237304688,1397.0,1.0,5.0,212223.0
111517.0234375,1398.0,2.0,4.0,212222.0
111530.36474609375,1399.0,0.0,4.0,212222.0
111543.70581054688,1400.0,0.0,5.0,212223.0
111557.04711914062,1401.0,1.0,6.0,212224.0
111570.38842773438,1402.0,2.0,7.0,212225.0
111583.7294921875,1403.0,2.0,5.0,212223.0
111597.07080078125,1404.0,-3.0,-2.0,212216.0
111610.412109375,1405.0,-14.0,-13.0,212205.0
111623.75317382812,1406.0,-28.0,-24.0,212194.0
111637.09448242188,1407.0,-42.0,-34.0,212184.0
111650.43579101562,1408.0,-52.0,-42.0,212176.0
111663.77685546875,1409.0,-58.0,-44.0,212174.0
111677.1181640625,1410.0,-59.0,-44.0,212174.0
111690.45922851562,1411.0,-58.0,-41.0,212177.0
111703.80053710938,1412.0,-54.0,-38.0,212180.0
111717.14184570312,1413.0,-48.0,-32.0,212186.0
111730.48291015625,1414.0,-42.0,-26.0,212192.0
111743.82421875,1415.0,-39.0,-22.0,212196.0
111757.16552734375,1416.0,-34.0,-19.0,212199.0
111770.50659179688,1417.0,-31.0,-18.0,212200.0
111783.84790039062,1418.0,-27.0,-16.0,212202.0
111797.18896484375,1419.0,-22.0,-16.0,212202.0
111810.5302734375,1420.0,-17.0,-15.0,212203.0
111823.87158203125,1421.0,-13.0,-14.0,212204.0
111837.21264648438,1422.0,-11.0,-13.0,212205.0
111850.55395507812,1423.0,-9.0,-11.0,212207.0
111863.89526367188,1424.0,-5.0,-8.0,212210.0
111877.236328125,1425.0,-2.0,-7.0,212211.0
111890.57763671875,1426.0,-2.0,-8.0,212210.0
111903.9189453125,1427.0,-4.0,-11.0,212207.0
111917.26000976562,1428.0,-8.0,-14.0,212204.0
111930.60131835938,1429.0,-13.0,-14.0,212204.0
111943.9423828125,1430.0,-17.0,-12.0,212206.0
111957.28369140625,1431.0,-19.0,-11.0,212207.0
111970.625,1432.0,-18.0,-11.0,212207.0
111983.96606445312,1433.0,-14.0,-11.0,212207.0
111997.30737304688,1434.0,-9.0,-11.0,212207.0
112010.64868164062,1435.0,-3.0,-11.0,212207.0
112023.98974609375,1436.0,3.0,-9.0,212209.0
112037.3310546875,1437.0,7.0,-7.0,212211.0
112050.67211914062,1438.0,8.0,-5.0,212213.0
112064.01342773438,1439.0,8.0,-2.0,212216.0
112077.35473632812,1440.0,10.0,0.0,212218.0
112090.69580078125,1441.0,13.0,3.0,212221.0
112104.037109375,1442.0,15.0,6.0,212224.0
112117.37841796875,1443.0,18.0,6.0,212224.0
112130.71948242188,1444.0,21.0,6.0,212224.0
112144.06079101562,1445.0,21.0,6.0,212224.0
112157.40209960938,1446.0,19.0,8.0,212226.0
112170.7431640625,1447.0,17.0,11.0,212229.0
112184.08447265625,1448.0,17.0,14.0,212232.0
112197.42553710938,1449.0,18.0,18.0,212236.0
112210.76684570312,1450.0,20.0,20.0,212238.0
112224.10815429688,1451.0,20.0,19.0,212237.0
112237.44921875,1452.0,15.0,14.0,212232.0
112250.79052734375,1453.0,5.0,4.0,212222.0
112264.1318359375,1454.0,-12.0,-7.0,212211.0
112277.47290039062,1455.0,-30.0,-17.0,212201.0
112290.81420898438,1456.0,-46.0,-27.0,212191.0
112304.1552734375,1457.0,-59.0,-32.0,212186.0
112317.49658203125,1458.0,-64.0,-31.0,212187.0
112330.837890625,1459.0,-64.0,-27.0,212191.0
112344.17895507812,1460.0,-61.0,-23.0,212195.0
112357.52026367188,1461.0,-56.0,-21.0,212197.0
112370.86157226562,1462.0,-51.0,-18.0,212200.0
112384.20263671875,1463.0,-45.0,-18.0,212200.0
112397.5439453125,1464.0,-38.0,-19.0,212199.0
112410.88525390625,1465.0,-32.0,-20.0,212198.0
112424.22631835938,1466.0,-27.0,-20.0,212198.0
112437.56762695312,1467.0,-23.0,-20.0,212198.0
112450.90869140625,1468.0,-20.0,-20.0,212198.0
112464.25,1469.0,-17.0,-19.0,212199.0
112477.59130859375,1470.0,-16.0,-16.0,212202.0
112490.93237304688,1471.0,-15.0,-12.0,212206.0
112504.27368164062,1472.0,-11.0,-9.0,212209.0
112517.61499023438,1473.0,-8.0,-7.0,212211.0
112530.9560546875,1474.0,-6.0,-6.0,212212.0
112544.29736328125,1475.0,-8.0,-7.0,212211.0
112557.63842773438,1476.0,-11.0,-7.0,212211.0
112570.97973632812,1477.0,-14.0,-6.0,212212.0
112584.32104492188,1478.0,-19.0,-6.0,212212.0
112597.662109375,1479.0,-23.0,-6.0,212212.0
112611.00341796875,1480.0,-24.0,-6.0,212212.0
112624.3447265625,1481.0,-21.0,-4.0,212214.0
112637.68579101562,1482.0,-19.0,0.0,212218.0
112651.02709960938,1483.0,-15.0,4.0,212222.0
112664.36840820312,1484.0,-9.0,8.0,212226.0
112677.70947265625,1485.0,-3.0,11.0,212229.0
112691.05078125,1486.0,2.0,10.0,212228.0
112704.39184570312,1487.0,6.0,9.0,212227.0
112717.73315429688,1488.0,9.0,8.0,212226.0
112731.07446289062,1489.0,11.0,9.0,212227.0
112744.41552734375,1490.0,10.0,11.0,212229.0
112757.7568359375,1491.0,8.0,11.0,212229.0
112771.09814453125,1492.0,7.0,10.0,212228.0
112784.43920898438,1493.0,6.0,9.0,212227.0
112797.78051757812,1494.0,6.0,9.0,212227.0
112811.12158203125,1495.0,6.0,8.0,212226.0
112824.462890625,1496.0,7.0,9.0,212227.0
112837.80419921875,1497.0,7.0,10.0,212228.0
112851.14526367188,1498.0,5.0,11.0,212229.0
112864.48657226562,1499.0,3.0,11.0,212229.0
112877.82788085938,1500.0,3.0,11.0,212229.0
112891.1689453125,1501.0,3.0,10.0,212228.0
112904.51025390625,1502.0,-1.0,5.0,212223.0
112917.85131835938,1503.0,-10.0,-2.0,212216.0
112931.19262695312,1504.0,-21.0,-11.0,212207.0
112944.53393554688,1505.0,-32.0,-18.0,212200.0
112957.875,1506.0,-44.0,-22.0,212196.0
112971.21630859375,1507.0,-52.0,-24.0,212194.0
112984.5576171875,1508.0,-57.0,-23.0,212195.0
112997.89868164062,1509.0,-57.0,-21.0,212197.0
113011.23999023438,1510.0,-54.0,-20.0,212198.0
113024.58129882812,1511.0,-52.0,-19.0,212199.0
113037.92236328125,1512.0,-47.0,-15.0,212203.0
113051.263671875,1513.0,-41.0,-12.0,212206.0
113064.60473632812,1514.0,-35.0,-7.0,212211.0
113077.94604492188,1515.0,-29.0,-1.0,212217.0
113091.28735351562,1516.0,-21.0,3.0,212221.0
113104.62841796875,1517.0,-10.0,5.0,212223.0
113117.9697265625,1518.0,0.0,5.0,212223.0
113131.31103515625,1519.0,7.0,5.0,212223.0
113144.65209960938,1520.0,11.0,4.0,212222.0
113157.99340820312,1521.0,14.0,2.0,212220.0
113171.33447265625,1522.0,14.0,2.0,212220.0
113184.67578125,1523.0,11.0,3.0,212221.0
113198.01708984375,1524.0,8.0,3.0,212221.0
113211.35815429688,1525.0,4.0,1.0,212219.0
113224.69946289062,1526.0,1.0,-2.0,212216.0
113238.04077148438,1527.0,-2.0,-5.0,212213.0
113251.3818359375,1528.0,-3.0,-9.0,212209.0
113264.72314453125,1529.0,0.0,-10.0,212208.0
113278.064453125,1530.0,3.0,-9.0,212209.0
113291.40551757812,1531.0,5.0,-7.0,212211.0
113304.74682617188,1532.0,8.0,-6.0,212212.0
113318.087890625,1533.0,12.0,-5.0,212213.0
113331.42919921875,1534.0,16.0,-3.0,212215.0
113344.7705078125,1535.0,20.0,-3.0,212215.0
113358.11157226562,1536.0,24.0,-3.0,212215.0
113371.45288085938,1537.0,24.0,-1.0,212217.0
113384.79418945312,1538.0,25.0,2.0,212220.0
113398.13525390625,1539.0,27.0,6.0,212224.0
113411.4765625,1540.0,28.0,8.0,212226.0
113424.81762695312,1541.0,30.0,9.0,212227.0
113438.15893554688,1542.0,32.0,8.0,212226.0
113451.50024414062,1543.0,34.0,5.0,212223.0
113464.84130859375,1544.0,35.0,3.0,212221.0
113478.1826171875,1545.0,35.0,1.0,212219.0
113491.52392578125,1546.0,32.0,-1.0,212217.0
113504.86499023438,1547.0,30.0,-1.0,212217.0
113518.20629882812,1548.0,28.0,-1.0,212217.0
113531.54760742188,1549.0,30.0,-1.0,212217.0
113544.888671875,1550.0,32.0,-1.0,212217.0
113558.22998046875,1551.0,31.0,-2.0,212216.0
113571.57104492188,1552.0,29.0,-5.0,212213.0
113584.91235351562,1553.0,23.0,-11.0,212207.0
113598.25366210938,1554.0,11.0,-20.0,212198.0
113611.5947265625,1555.0,-4.0,-28.0,212190.0
113624.93603515625,1556.0,-18.0,-37.0,212181.0
113638.27734375,1557.0,-29.0,-43.0,212175.0
113651.61840820312,1558.0,-38.0,-42.0,212176.0
113664.95971679688,1559.0,-41.0,-39.0,212179.0
113678.30078125,1560.0,-37.0,-34.0,212184.0
113691.64208984375,1561.0,-30.0,-29.0,212189.0
113704.9833984375,1562.0,-21.0,-23.0,212195.0
113718.32446289062,1563.0,-13.0,-18.0,212200.0
113731.66577148438,1564.0,-6.0,-13.0,212205.0
113745.00708007812,1565.0,-1.0,-10.0,212208.0
113758.34814453125,1566.0,2.0,-9.0,212209.0
113771.689453125,1567.0,4.0,-9.0,212209.0
113785.03076171875,1568.0,4.0,-8.0,212210.0
113798.37182617188,1569.0,4.0,-8.0,212210.0
113811.71313476562,1570.0,4.0,-8.0,212210.0
113825.05419921875,1571.0,5.0,-7.0,212211.0
113838.3955078125,1572.0,5.0,-6.0,212212.0
113851.73681640625,1573.0,5.0,-6.0,212212.0
113865.07788085938,1574.0,5.0,-9.0,212209.0
113878.41918945312,1575.0,4.0,-15.0,212203.0
113891.76049804688,1576.0,2.0,-19.0,212199.0
113905.1015625,1577.0,1.0,-20.0,212198.0
113918.44287109375,1578.0,1.0,-22.0,212196.0
113931.78393554688,1579.0,0.0,-25.0,212193.0
113945.12524414062,1580.0,-1.0,-29.0,212189.0
113958.46655273438,1581.0,-3.0,-31.0,212187.0
113971.8076171875,1582.0,-4.0,-32.0,212186.0
113985.14892578125,1583.0,-5.0,-29.0,212189.0
113998.490234375,1584.0,-5.0,-23.0,212195.0
114011.83129882812,1585.0,-3.0,-17.0,212201.0
114025.17260742188,1586.0,0.0,-11.0,212207.0
114038.51391601562,1587.0,3.0,-4.0,212214.0
114051.85498046875,1588.0,6.0,1.0,212219.0
114065.1962890625,1589.0,8.0,4.0,212222.0
114078.53735351562,1590.0,9.0,6.0,212224.0
114091.87866210938,1591.0,9.0,8.0,212226.0
114105.21997070312,1592.0,9.0,9.0,212227.0
114118.56103515625,1593.0,8.0,10.0,212228.0
114131.90234375,1594.0,7.0,10.0,212228.0
114145.24365234375,1595.0,9.0,9.0,212227.0
114158.58471679688,1596.0,12.0,6.0,212224.0
114171.92602539062,1597.0,15.0,4.0,212222.0
114185.26708984375,1598.0,18.0,5.0,212223.0
114198.6083984375,1599.0,20.0,7.0,212225.0
114211.94970703125,1600.0,20.0,10.0,212228.0
114225.29077148438,1601.0,17.0,9.0,212227.0
114238.63208007812,1602.0,10.0,6.0,212224.0
114251.97338867188,1603.0,-1.0,-2.0,212216.0
114265.314453125,1604.0,-15.0,-13.0,212205.0
114278.65576171875,1605.0,-29.0,-26.0,212192.0
114291.99682617188,1606.0,-39.0,-35.0,212183.0
114305.33813476562,1607.0,-45.0,-40.0,212178.0
114318.67944335938,1608.0,-46.0,-40.0,212178.0
114332.0205078125,1609.0,-43.0,-37.0,212181.0
114345.36181640625,1610.0,-35.0,-32.0,212186.0
114358.703125,1611.0,-27.0,-25.0,212193.0
114372.04418945312,1612.0,-19.0,-18.0,212200.0
114385.38549804688,1613.0,-9.0,-9.0,212209.0
114398.72680664062,1614.0,-2.0,-3.0,212215.0
114412.06787109375,1615.0,3.0,2.0,212220.0
114425.4091796875,1616.0,6.0,6.0,212224.0
114438.75024414062,1617.0,9.0,10.0,212228.0
114452.09155273438,1618.0,12.0,11.0,212229.0
114465.43286132812,1619.0,13.0,12.0,212230.0
114478.77392578125,1620.0,17.0,12.0,212230.0
114492.115234375,1621.0,20.0,12.0,212230.0
114505.45654296875,1622.0,21.0,12.0,212230.0
114518.79760742188,1623.0,20.0,10.0,212228.0
114532.13891601562,1624.0,15.0,7.0,212225.0
114545.47998046875,1625.0,9.0,3.0,212221.0
114558.8212890625,1626.0,3.0,-3.0,212215.0
114572.16259765625,1627.0,-2.0,-8.0,212210.0
114585.50366210938,1628.0,-5.0,-13.0,212205.0
114598.84497070312,1629.0,-6.0,-16.0,212202.0
114612.18627929688,1630.0,-6.0,-19.0,212199.0
114625.52734375,1631.0,-3.0,-19.0,212199.0
114638.86865234375,1632.0,1.0,-15.0,212203.0
114652.2099609375,1633.0,7.0,-11.0,212207.0
114665.55102539062,1634.0,12.0,-7.0,212211.0
114678.89233398438,1635.0,13.0,-4.0,212214.0
114692.2333984375,1636.0,13.0,-2.0,212216.0
114705.57470703125,1637.0,15.0,-1.0,212217.0
114718.916015625,1638.0,18.0,-1.0,212217.0
114732.25708007812,1639.0,22.0,1.0,212219.0
114745.59838867188,1640.0,27.0,2.0,212220.0
114758.93969726562,1641.0,32.0,4.0,212222.0
114772.28076171875,1642.0,34.0,6.0,212224.0
114785.6220703125,1643.0,36.0,6.0,212224.0
114798.96313476562,1644.0,36.0,5.0,212223.0
114812.30444335938,1645.0,33.0,4.0,212222.0
114825.64575195312,1646.0,32.0,3.0,212221.0
114838.98681640625,1647.0,33.0,1.0,212219.0
114852.328125,1648.0,34.0,1.0,212219.0
114865.66943359375,1649.0,37.0,3.0,212221.0
114879.01049804688,1650.0,38.0,5.0,212223.0
114892.35180664062,1651.0,38.0,7.0,212225.0
114905.69311523438,1652.0,36.0,7.0,212225.0
114919.0341796875,1653.0,34.0,4.0,212222.0
114932.37548828125,1654.0,28.0,-3.0,212215.0
114945.71655273438,1655.0,16.0,-10.0,212208.0
114959.05786132812,1656.0,1.0,-19.0,212199.0
114972.39916992188,1657.0,-14.0,-27.0,212191.0
114985.740234375,1658.0,-28.0,-31.0,212187.0
114999.08154296875,1659.0,-37.0,-32.0,212186.0
115012.4228515625,1660.0,-41.0,-32.0,212186.0
115025.76391601562,1661.0,-40.0,-30.0,212188.0
115039.10522460938,1662.0,-36.0,-26.0,212192.0
115052.4462890625,1663.0,-29.0,-24.0,212194.0
115065.78759765625,1664.0,-21.0,-22.0,212196.0
115079.12890625,1665.0,-14.0,-19.0,212199.0
115092.46997070312,1666.0,-8.0,-17.0,212201.0
115105.81127929688,1667.0,-3.0,-15.0,212203.0
115119.15258789062,1668.0,1.0,-13.0,212205.0
115132.49365234375,1669.0,4.0,-11.0,212207.0
115145.8349609375,1670.0,5.0,-10.0,212208.0
115159.17626953125,1671.0,5.0,-8.0,212210.0
115172.51733398438,1672.0,4.0,-8.0,212210.0
115185.85864257812,1673.0,5.0,-10.0,212208.0
115199.19970703125,1674.0,6.0,-12.0,212206.0
115212.541015625,1675.0,6.0,-13.0,212205.0
115225.88232421875,1676.0,6.0,-15.0,212203.0
115239.22338867188,1677.0,4.0,-19.0,212199.0
115252.56469726562,1678.0,2.0,-23.0,212195.0
115265.90600585938,1679.0,-1.0,-26.0,212192.0
115279.2470703125,1680.0,-4.0,-28.0,212190.0
115292.58837890625,1681.0,-8.0,-28.0,212190.0
115305.92944335938,1682.0,-12.0,-26.0,212192.0
115319.27075195312,1683.0,-15.0,-22.0,212196.0
115332.61206054688,1684.0,-16.0,-19.0,212199.0
115345.953125,1685.0,-14.0,-14.0,212204.0
115359.29443359375,1686.0,-10.0,-12.0,212206.0
115372.6357421875,1687.0,-6.0,-10.0,212208.0
115385.97680664062,1688.0,-1.0,-10.0,212208.0
115399.31811523438,1689.0,3.0,-11.0,212207.0
115412.65942382812,1690.0,4.0,-10.0,212208.0
115426.00048828125,1691.0,5.0,-10.0,212208.0
115439.341796875,1692.0,7.0,-9.0,212209.0
115452.68286132812,1693.0,10.0,-9.0,212209.0
115466.02416992188,1694.0,14.0,-8.0,212210.0
115479.36547851562,1695.0,16.0,-5.0,212213.0
115492.70654296875,1696.0,19.0,-1.0,212217.0
115506.0478515625,1697.0,21.0,3.0,212221.0
115519.38916015625,1698.0,23.0,6.0,212224.0
115532.73022460938,1699.0,24.0,9.0,212227.0
115546.07153320312,1700.0,24.0,11.0,212229.0
115559.41259765625,1701.0,25.0,12.0,212230.0
115572.75390625,1702.0,26.0,12.0,212230.0
115586.09521484375,1703.0,25.0,12.0,212230.0
115599.43627929688,1704.0,26.0,12.0,212230.0
115612.77758789062,1705.0,27.0,14.0,212232.0
115626.11889648438,1706.0,27.0,15.0,212233.0
115639.4599609375,1707.0,23.0,13.0,212231.0
115652.80126953125,1708.0,15.0,6.0,212224.0
115666.14233398438,1709.0,2.0,-5.0,212213.0
115679.48364257812,1710.0,-12.0,-16.0,212202.0
115692.82495117188,1711.0,-25.0,-26.0,212192.0
115706.166015625,1712.0,-35.0,-34.0,212184.0
115719.50732421875,1713.0,-43.0,-37.0,212181.0
115732.8486328125,1714.0,-51.0,-38.0,212180.0
115746.18969726562,1715.0,-55.0,-36.0,212182.0
115759.53100585938,1716.0,-58.0,-33.0,212185.0
115772.87231445312,1717.0,-58.0,-28.0,212190.0
115786.21337890625,1718.0,-55.0,-21.0,212197.0
115799.5546875,1719.0,-51.0,-15.0,212203.0
115812.89575195312,1720.0,-44.0,-12.0,212206.0
115826.23706054688,1721.0,-37.0,-10.0,212208.0
115839.57836914062,1722.0,-31.0,-9.0,212209.0
115852.91943359375,1723.0,-28.0,-8.0,212210.0
115866.2607421875,1724.0,-25.0,-7.0,212211.0
115879.60205078125,1725.0,-25.0,-9.0,212209.0
115892.94311523438,1726.0,-25.0,-11.0,212207.0
115906.28442382812,1727.0,-24.0,-13.0,212205.0
115919.62548828125,1728.0,-25.0,-12.0,212206.0
115932.966796875,1729.0,-27.0,-11.0,212207.0
115946.30810546875,1730.0,-30.0,-11.0,212207.0
115959.64916992188,1731.0,-33.0,-12.0,212206.0
115972.99047851562,1732.0,-40.0,-13.0,212205.0
115986.33178710938,1733.0,-44.0,-15.0,212203.0
115999.6728515625,1734.0,-48.0,-14.0,212204.0
116013.01416015625,1735.0,-46.0,-13.0,212205.0
116026.35546875,1736.0,-43.0,-11.0,212207.0
116039.69653320312,1737.0,-37.0,-10.0,212208.0
116053.03784179688,1738.0,-33.0,-7.0,212211.0
116066.37890625,1739.0,-28.0,-5.0,212213.0
116079.72021484375,1740.0,-25.0,-5.0,212213.0
116093.0615234375,1741.0,-21.0,-5.0,212213.0
116106.40258789062,1742.0,-17.0,-3.0,212215.0
116119.74389648438,1743.0,-16.0,0.0,212218.0
116133.08520507812,1744.0,-16.0,2.0,212220.0
116146.42626953125,1745.0,-16.0,2.0,212220.0
116159.767578125,1746.0,-14.0,2.0,212220.0
116173.10864257812,1747.0,-10.0,2.0,212220.0
116186.44995117188,1748.0,-5.0,2.0,212220.0
116199.79125976562,1749.0,-1.0,3.0,212221.0
116213.13232421875,1750.0,5.0,4.0,212222.0
116226.4736328125,1751.0,10.0,6.0,212224.0
116239.81494140625,1752.0,13.0,8.0,212226.0
116253.15600585938,1753.0,15.0,8.0,212226.0
116266.49731445312,1754.0,17.0,7.0,212225.0
116279.83862304688,1755.0,20.0,5.0,212223.0
116293.1796875,1756.0,21.0,4.0,212222.0
116306.52099609375,1757.0,23.0,5.0,212223.0
116319.86206054688,1758.0,22.0,5.0,212223.0
116333.20336914062,1759.0,17.0,4.0,212222.0
116346.54467773438,1760.0,6.0,0.0,212218.0
116359.8857421875,1761.0,-9.0,-8.0,212210.0
116373.22705078125,1762.0,-25.0,-16.0,212202.0
116386.568359375,1763.0,-39.0,-24.0,212194.0
116399.90942382812,1764.0,-49.0,-29.0,212189.0
116413.25073242188,1765.0,-53.0,-33.0,212185.0
116426.591796875,1766.0,-51.0,-34.0,212184.0
116439.93310546875,1767.0,-47.0,-31.0,212187.0
116453.2744140625,1768.0,-41.0,-28.0,212190.0
116466.61547851562,1769.0,-34.0,-26.0,212192.0
116479.95678710938,1770.0,-28.0,-24.0,212194.0
116493.29809570312,1771.0,-21.0,-21.0,212197.0
116506.63916015625,1772.0,-14.0,-15.0,212203.0
116519.98046875,1773.0,-8.0,-8.0,212210.0
116533.32177734375,1774.0,-3.0,-2.0,212216.0
116546.66284179688,1775.0,1.0,3.0,212221.0
116560.00415039062,1776.0,4.0,6.0,212224.0
116573.34521484375,1777.0,7.0,7.0,212225.0
116586.6865234375,1778.0,9.0,5.0,212223.0
116600.02783203125,1779.0,8.0,3.0,212221.0
116613.36889648438,1780.0,6.0,-1.0,212217.0
116626.71020507812,1781.0,1.0,-4.0,212214.0
116640.05151367188,1782.0,-5.0,-7.0,212211.0
116653.392578125,1783.0,-11.0,-9.0,212209.0
116666.73388671875,1784.0,-16.0,-10.0,212208.0
116680.07495117188,1785.0,-19.0,-9.0,212209.0
116693.41625976562,1786.0,-21.0,-7.0,212211.0
116706.75756835938,1787.0,-19.0,-5.0,212213.0
116720.0986328125,1788.0,-15.0,-3.0,212215.0
116733.43994140625,1789.0,-10.0,-1.0,212217.0
116746.78125,1790.0,-6.0,0.0,212218.0
116760.12231445312,1791.0,-3.0,1.0,212219.0
116773.46362304688,1792.0,1.0,1.0,212219.0
116786.80493164062,1793.0,7.0,2.0,212220.0
116800.14599609375,1794.0,13.0,4.0,212222.0
116813.4873046875,1795.0,18.0,5.0,212223.0
116826.82836914062,1796.0,21.0,6.0,212224.0
116840.16967773438,1797.0,22.0,7.0,212225.0
116853.51098632812,1798.0,22.0,8.0,212226.0
116866.85205078125,1799.0,21.0,7.0,212225.0
116880.193359375,1800.0,21.0,5.0,212223.0
116893.53466796875,1801.0,19.0,4.0,212222.0
116906.87573242188,1802.0,18.0,3.0,212221.0
116920.21704101562,1803.0,17.0,2.0,212220.0
116933.55810546875,1804.0,15.0,2.0,212220.0
116946.8994140625,1805.0,14.0,2.0,212220.0
116960.24072265625,1806.0,12.0,2.0,212220.0
116973.58178710938,1807.0,12.0,3.0,212221.0
116986.92309570312,1808.0,13.0,6.0,212224.0
117000.26440429688,1809.0,15.0,9.0,212227.0
117013.60546875,1810.0,15.0,10.0,212228.0
117026.94677734375,1811.0,12.0,10.0,212228.0
117040.28784179688,1812.0,6.0,6.0,212224.0
117053.62915039062,1813.0,-4.0,-1.0,212217.0
117066.97045898438,1814.0,-17.0,-9.0,212209.0
117080.3115234375,1815.0,-30.0,-19.0,212199.0
117093.65283203125,1816.0,-43.0,-28.0,212190.0
117106.994140625,1817.0,-51.0,-34.0,212184.0
117120.33520507812,1818.0,-56.0,-38.0,212180.0
117133.67651367188,1819.0,-55.0,-39.0,212179.0
117147.01782226562,1820.0,-53.0,-38.0,212180.0
117160.35888671875,1821.0,-46.0,-33.0,212185.0
117173.7001953125,1822.0,-37.0,-26.0,212192.0
117187.04125976562,1823.0,-29.0,-19.0,212199.0
117200.38256835938,1824.0,-21.0,-12.0,212206.0
117213.72387695312,1825.0,-11.0,-8.0,212210.0
117227.06494140625,1826.0,-5.0,-6.0,212212.0
117240.40625,1827.0,0.0,-4.0,212214.0
117253.74755859375,1828.0,2.0,-3.0,212215.0
117267.08862304688,1829.0,4.0,-3.0,212215.0
117280.42993164062,1830.0,6.0,-3.0,212215.0
117293.77099609375,1831.0,8.0,-2.0,212216.0
117307.1123046875,1832.0,9.0,-2.0,212216.0
117320.45361328125,1833.0,9.0,-3.0,212215.0
117333.79467773438,1834.0,6.0,-6.0,212212.0
117347.13598632812,1835.0,3.0,-9.0,212209.0
117360.47729492188,1836.0,-2.0,-12.0,212206.0
117373.818359375,1837.0,-8.0,-15.0,212203.0
117387.15966796875,1838.0,-14.0,-14.0,212204.0
117400.5009765625,1839.0,-15.0,-12.0,212206.0
117413.84204101562,1840.0,-15.0,-8.0,212210.0
117427.18334960938,1841.0,-14.0,-4.0,212214.0
117440.5244140625,1842.0,-13.0,-2.0,212216.0
117453.86572265625,1843.0,-11.0,-1.0,212217.0
117467.20703125,1844.0,-8.0,-2.0,212216.0
117480.54809570312,1845.0,-4.0,-2.0,212216.0
117493.88940429688,1846.0,1.0,-2.0,212216.0
117507.23071289062,1847.0,5.0,-1.0,212217.0
117520.57177734375,1848.0,10.0,-1.0,212217.0
117533.9130859375,1849.0,12.0,0.0,212218.0
117547.25415039062,1850.0,13.0,2.0,212220.0
117560.59545898438,1851.0,13.0,4.0,212222.0
117573.93676757812,1852.0,14.0,5.0,212223.0
117587.27783203125,1853.0,14.0,8.0,212226.0
117600.619140625,1854.0,15.0,11.0,212229.0
117613.96044921875,1855.0,16.0,14.0,212232.0
117627.30151367188,1856.0,17.0,17.0,212235.0
117640.64282226562,1857.0,18.0,18.0,212236.0
117653.98413085938,1858.0,18.0,18.0,212236.0
117667.3251953125,1859.0,17.0,17.0,212235.0
117680.66650390625,1860.0,18.0,15.0,212233.0
117694.00756835938,1861.0,18.0,13.0,212231.0
117707.34887695312,1862.0,21.0,11.0,212229.0
117720.69018554688,1863.0,24.0,10.0,212228.0
117734.03125,1864.0,26.0,7.0,212225.0
117747.37255859375,1865.0,22.0,6.0,212224.0
117760.7138671875,1866.0,12.0,2.0,212220.0
117774.05493164062,1867.0,-4.0,-6.0,212212.0
117787.39624023438,1868.0,-23.0,-15.0,212203.0
117800.7373046875,1869.0,-39.0,-24.0,212194.0
117814.07861328125,1870.0,-51.0,-30.0,212188.0
117827.419921875,1871.0,-58.0,-32.0,212186.0
117840.76098632812,1872.0,-61.0,-31.0,212187.0
117854.10229492188,1873.0,-61.0,-29.0,212189.0
117867.44360351562,1874.0,-58.0,-25.0,212193.0
117880.78466796875,1875.0,-51.0,-20.0,212198.0
117894.1259765625,1876.0,-42.0,-15.0,212203.0
117907.46728515625,1877.0,-34.0,-10.0,212208.0
117920.80834960938,1878.0,-26.0,-4.0,212214.0
117934.14965820312,1879.0,-20.0,1.0,212219.0
117947.49072265625,1880.0,-14.0,6.0,212224.0
117960.83203125,1881.0,-9.0,9.0,212227.0
117974.17333984375,1882.0,-7.0,13.0,212231.0
117987.51440429688,1883.0,-5.0,15.0,212233.0
118000.85571289062,1884.0,-5.0,16.0,212234.0
118014.19702148438,1885.0,-4.0,15.0,212233.0
118027.5380859375,1886.0,-3.0,15.0,212233.0
118040.87939453125,1887.0,-1.0,14.0,212232.0
118054.22045898438,1888.0,0.0,11.0,212229.0
118067.56176757812,1889.0,-1.0,7.0,212225.0
118080.90307617188,1890.0,-5.0,3.0,212221.0
118094.244140625,1891.0,-10.0,-2.0,212216.0
118107.58544921875,1892.0,-12.0,-7.0,212211.0
118120.9267578125,1893.0,-11.0,-9.0,212209.0
118134.26782226562,1894.0,-8.0,-7.0,212211.0
118147.60913085938,1895.0,-3.0,-2.0,212216.0
118160.95043945312,1896.0,3.0,1.0,212219.0
118174.29150390625,1897.0,8.0,4.0,212222.0
118187.6328125,1898.0,11.0,7.0,212225.0
118200.97387695312,1899.0,14.0,9.0,212227.0
118214.31518554688,1900.0,18.0,10.0,212228.0
118227.65649414062,1901.0,22.0,10.0,212228.0
118240.99755859375,1902.0,24.0,10.0,212228.0
118254.3388671875,1903.0,23.0,11.0,212229.0
118267.68017578125,1904.0,21.0,10.0,212228.0
118281.02124023438,1905.0,18.0,9.0,212227.0
118294.36254882812,1906.0,16.0,9.0,212227.0
118307.70361328125,1907.0,15.0,9.0,212227.0
118321.044921875,1908.0,17.0,9.0,212227.0
118334.38623046875,1909.0,20.0,10.0,212228.0
118347.72729492188,1910.0,22.0,13.0,212231.0
118361.06860351562,1911.0,25.0,16.0,212234.0
118374.40991210938,1912.0,27.0,18.0,212236.0
118387.7509765625,1913.0,30.0,19.0,212237.0
118401.09228515625,1914.0,33.0,21.0,212239.0
118414.43334960938,1915.0,34.0,22.0,212240.0
118427.77465820312,1916.0,36.0,23.0,212241.0
118441.11596679688,1917.0,36.0,24.0,212242.0
118454.45703125,1918.0,36.0,24.0,212242.0
118467.79833984375,1919.0,35.0,21.0,212239.0
118481.1396484375,1920.0,28.0,13.0,212231.0
118494.48071289062,1921.0,14.0,1.0,212219.0
118507.82202148438,1922.0,-4.0,-11.0,212207.0
118521.16333007812,1923.0,-22.0,-22.0,212196.0
118534.50439453125,1924.0,-36.0,-28.0,212190.0
118547.845703125,1925.0,-45.0,-31.0,212187.0
118561.18676757812,1926.0,-46.0,-31.0,212187.0
118574.52807617188,1927.0,-40.0,-30.0,212188.0
118587.86938476562,1928.0,-31.0,-28.0,212190.0
118601.21044921875,1929.0,-22.0,-23.0,212195.0
118614.5517578125,1930.0,-11.0,-18.0,212200.0
118627.89306640625,1931.0,-3.0,-14.0,212204.0
118641.23413085938,1932.0,3.0,-10.0,212208.0
118654.57543945312,1933.0,6.0,-6.0,212212.0
118667.91650390625,1934.0,7.0,-4.0,212214.0
118681.2578125,1935.0,8.0,-3.0,212215.0
118694.59912109375,1936.0,9.0,-4.0,212214.0
118707.94018554688,1937.0,10.0,-4.0,212214.0
118721.28149414062,1938.0,15.0,-3.0,212215.0
118734.62280273438,1939.0,21.0,1.0,212219.0
118747.9638671875,1940.0,25.0,5.0,212223.0
118761.30517578125,1941.0,25.0,7.0,212225.0
118774.646484375,1942.0,22.0,9.0,212227.0
118787.98754882812,1943.0,16.0,8.0,212226.0
118801.32885742188,1944.0,8.0,6.0,212224.0
118814.669921875,1945.0,0.0,1.0,212219.0
118828.01123046875,1946.0,-6.0,-2.0,212216.0
118841.3525390625,1947.0,-10.0,-4.0,212214.0
118854.69360351562,1948.0,-8.0,-5.0,212213.0
118868.03491210938,1949.0,-2.0,-5.0,212213.0
118881.37622070312,1950.0,6.0,-5.0,212213.0
118894.71728515625,1951.0,12.0,-5.0,212213.0
118908.05859375,1952.0,17.0,-5.0,212213.0
118921.39965820312,1953.0,19.0,-5.0,212213.0
118934.74096679688,1954.0,21.0,-6.0,212212.0
118948.08227539062,1955.0,23.0,-8.0,212210.0
118961.42333984375,1956.0,25.0,-8.0,212210.0
118974.7646484375,1957.0,25.0,-6.0,212212.0
118988.10595703125,1958.0,24.0,-4.0,212214.0
119001.44702148438,1959.0,24.0,-2.0,212216.0
119014.78833007812,1960.0,26.0,2.0,212220.0
119028.12963867188,1961.0,31.0,5.0,212223.0
119041.470703125,1962.0,37.0,7.0,212225.0
119054.81201171875,1963.0,41.0,8.0,212226.0
119068.15307617188,1964.0,42.0,9.0,212227.0
119081.49438476562,1965.0,43.0,11.0,212229.0
119094.83569335938,1966.0,42.0,13.0,212231.0
119108.1767578125,1967.0,42.0,14.0,212232.0
119121.51806640625,1968.0,40.0,16.0,212234.0
119134.859375,1969.0,37.0,17.0,212235.0
119148.20043945312,1970.0,32.0,14.0,212232.0
119161.54174804688,1971.0,23.0,6.0,212224.0
119174.8828125,1972.0,12.0,-5.0,212213.0
119188.22412109375,1973.0,-2.0,-17.0,212201.0
119201.5654296875,1974.0,-16.0,-28.0,212190.0
119214.90649414062,1975.0,-27.0,-37.0,212181.0
119228.24780273438,1976.0,-35.0,-45.0,212173.0
119241.58911132812,1977.0,-37.0,-51.0,212167.0
119254.93017578125,1978.0,-35.0,-53.0,212165.0
119268.271484375,1979.0,-29.0,-51.0,212167.0
119281.61279296875,1980.0,-21.0,-46.0,212172.0
119294.95385742188,1981.0,-13.0,-41.0,212177.0
119308.29516601562,1982.0,-5.0,-38.0,212180.0
119321.63623046875,1983.0,1.0,-34.0,212184.0
119334.9775390625,1984.0,3.0,-32.0,212186.0
119348.31884765625,1985.0,5.0,-30.0,212188.0
119361.65991210938,1986.0,6.0,-28.0,212190.0
119375.00122070312,1987.0,6.0,-27.0,212191.0
119388.34252929688,1988.0,6.0,-27.0,212191.0
119401.68359375,1989.0,5.0,-26.0,212192.0
119415.02490234375,1990.0,4.0,-26.0,212192.0
119428.36596679688,1991.0,4.0,-25.0,212193.0
119441.70727539062,1992.0,5.0,-22.0,212196.0
119455.04858398438,1993.0,6.0,-21.0,212197.0
119468.3896484375,1994.0,6.0,-21.0,212197.0
119481.73095703125,1995.0,5.0,-21.0,212197.0
119495.072265625,1996.0,2.0,-18.0,212200.0
119508.41333007812,1997.0,-2.0,-15.0,212203.0
119521.75463867188,1998.0,-4.0,-13.0,212205.0
119535.09594726562,1999.0,-4.0,-12.0,212206.0
119548.43701171875,2000.0,-2.0,-13.0,212205.0
119561.7783203125,2001.0,1.0,-13.0,212205.0
119575.11938476562,2002.0,6.0,-12.0,212206.0
119588.46069335938,2003.0,10.0,-11.0,212207.0
119601.80200195312,2004.0,13.0,-9.0,212209.0
119615.14306640625,2005.0,16.0,-6.0,212212.0
119628.484375,2006.0,18.0,-4.0,212214.0
119641.82568359375,2007.0,21.0,-2.0,212216.0
119655.16674804688,2008.0,24.0,-2.0,212216.0
119668.50805664062,2009.0,26.0,0.0,212218.0
119681.84912109375,2010.0,25.0,1.0,212219.0
119695.1904296875,2011.0,25.0,2.0,212220.0
119708.53173828125,2012.0,25.0,3.0,212221.0
119721.87280273438,2013.0,23.0,4.0,212222.0
119735.21411132812,2014.0,23.0,6.0,212224.0
119748.55541992188,2015.0,25.0,8.0,212226.0
119761.896484375,2016.0,27.0,9.0,212227.0
119775.23779296875,2017.0,30.0,9.0,212227.0
119788.57885742188,2018.0,35.0,9.0,212227.0
119801.92016601562,2019.0,39.0,9.0,212227.0
119815.26147460938,2020.0,40.0,10.0,212228.0
119828.6025390625,2021.0,40.0,8.0,212226.0
119841.94384765625,2022.0,34.0,4.0,212222.0
119855.28515625,2023.0,24.0,-4.0,212214.0
119868.62622070312,2024.0,7.0,-15.0,212203.0
119881.96752929688,2025.0,-13.0,-25.0,212193.0
119895.30883789062,2026.0,-29.0,-35.0,212183.0
119908.64990234375,2027.0,-43.0,-40.0,212178.0
119921.9912109375,2028.0,-53.0,-40.0,212178.0
119935.33227539062,2029.0,-56.0,-38.0,212180.0
119948.67358398438,2030.0,-56.0,-34.0,212184.0
119962.01489257812,2031.0,-53.0,-31.0,212187.0
119975.35595703125,2032.0,-47.0,-29.0,212189.0
119988.697265625,2033.0,-41.0,-26.0,212192.0
120002.03857421875,2034.0,-36.0,-24.0,212194.0
120015.37963867188,2035.0,-29.0,-20.0,212198.0
120028.72094726562,2036.0,-23.0,-16.0,212202.0
120042.06201171875,2037.0,-18.0,-14.0,212204.0
120055.4033203125,2038.0,-14.0,-12.0,212206.0
120068.74462890625,2039.0,-10.0,-9.0,212209.0
120082.08569335938,2040.0,-8.0,-6.0,212212.0
120095.42700195312,2041.0,-6.0,-3.0,212215.0
120108.76831054688,2042.0,-4.0,-3.0,212215.0
120122.109375,2043.0,-2.0,-4.0,212214.0
120135.45068359375,2044.0,-3.0,-7.0,212211.0
120148.7919921875,2045.0,-8.0,-10.0,212208.0
120162.13305664062,2046.0,-14.0,-13.0,212205.0
120175.47436523438,2047.0,-21.0,-15.0,212203.0
120188.8154296875,2048.0,-25.0,-16.0,212202.0
120202.15673828125,2049.0,-26.0,-14.0,212204.0
120215.498046875,2050.0,-26.0,-11.0,212207.0
120228.83911132812,2051.0,-23.0,-8.0,212210.0
120242.18041992188,2052.0,-18.0,-3.0,212215.0
120255.52172851562,2053.0,-14.0,-1.0,212217.0
120268.86279296875,2054.0,-10.0,3.0,212221.0
120282.2041015625,2055.0,-6.0,7.0,212225.0
120295.54516601562,2056.0,-2.0,11.0,212229.0
120308.88647460938,2057.0,2.0,12.0,212230.0
120322.22778320312,2058.0,5.0,14.0,212232.0
120335.56884765625,2059.0,7.0,17.0,212235.0
120348.91015625,2060.0,8.0,18.0,212236.0
120362.25146484375,2061.0,8.0,20.0,212238.0
120375.59252929688,2062.0,7.0,18.0,212236.0
120388.93383789062,2063.0,5.0,17.0,212235.0
120402.27514648438,2064.0,3.0,15.0,212233.0
120415.6162109375,2065.0,1.0,13.0,212231.0
120428.95751953125,2066.0,0.0,12.0,212230.0
120442.29858398438,2067.0,-1.0,13.0,212231.0
120455.63989257812,2068.0,-1.0,13.0,212231.0
120468.98120117188,2069.0,0.0,13.0,212231.0
120482.322265625,2070.0,2.0,12.0,212230.0
120495.66357421875,2071.0,3.0,11.0,212229.0
120509.0048828125,2072.0,4.0,11.0,212229.0
120522.34594726562,2073.0,5.0,11.0,212229.0
120535.68725585938,2074.0,5.0,10.0,212228.0
120549.0283203125,2075.0,0.0,6.0,212224.0
120562.36962890625,2076.0,-9.0,1.0,212219.0
120575.7109375,2077.0,-22.0,-7.0,212211.0
120589.05200195312,2078.0,-37.0,-13.0,212205.0
120602.39331054688,2079.0,-50.0,-20.0,212198.0
120615.73461914062,2080.0,-57.0,-24.0,212194.0
120629.07568359375,2081.0,-59.0,-25.0,212193.0
120642.4169921875,2082.0,-57.0,-24.0,212194.0
120655.75830078125,2083.0,-49.0,-23.0,212195.0
120669.09936523438,2084.0,-38.0,-22.0,212196.0
120682.44067382812,2085.0,-28.0,-19.0,212199.0
120695.78173828125,2086.0,-21.0,-16.0,212202.0
120709.123046875,2087.0,-14.0,-14.0,212204.0
120722.46435546875,2088.0,-10.0,-12.0,212206.0
120735.80541992188,2089.0,-8.0,-9.0,212209.0
120749.14672851562,2090.0,-7.0,-6.0,212212.0
120762.48803710938,2091.0,-7.0,-4.0,212214.0
120775.8291015625,2092.0,-7.0,-2.0,212216.0
120789.17041015625,2093.0,-6.0,0.0,212218.0
120802.51147460938,2094.0,-3.0,3.0,212221.0
120815.85278320312,2095.0,0.0,6.0,212224.0
120829.19409179688,2096.0,1.0,8.0,212226.0
120842.53515625,2097.0,2.0,8.0,212226.0
120855.87646484375,2098.0,2.0,8.0,212226.0
120869.2177734375,2099.0,2.0,8.0,212226.0
120882.55883789062,2100.0,4.0,9.0,212227.0
120895.90014648438,2101.0,7.0,9.0,212227.0
120909.24145507812,2102.0,7.0,10.0,212228.0
120922.58251953125,2103.0,5.0,9.0,212227.0
120935.923828125,2104.0,4.0,7.0,212225.0
120949.26489257812,2105.0,4.0,4.0,212222.0
120962.60620117188,2106.0,3.0,2.0,212220.0
120975.94750976562,2107.0,4.0,1.0,212219.0
120989.28857421875,2108.0,5.0,2.0,212220.0
121002.6298828125,2109.0,8.0,3.0,212221.0
121015.97119140625,2110.0,12.0,4.0,212222.0
121029.31225585938,2111.0,17.0,6.0,212224.0
121042.65356445312,2112.0,22.0,8.0,212226.0
121055.99462890625,2113.0,27.0,10.0,212228.0
121069.3359375,2114.0,33.0,13.0,212231.0
121082.67724609375,2115.0,40.0,19.0,212237.0
121096.01831054688,2116.0,44.0,25.0,212243.0
121109.35961914062,2117.0,47.0,28.0,212246.0
121122.70092773438,2118.0,48.0,31.0,212249.0
121136.0419921875,2119.0,48.0,32.0,212250.0
121149.38330078125,2120.0,46.0,34.0,212252.0
121162.72436523438,2121.0,44.0,37.0,212255.0
121176.06567382812,2122.0,44.0,38.0,212256.0
121189.40698242188,2123.0,42.0,40.0,212258.0
121202.748046875,2124.0,41.0,40.0,212258.0
121216.08935546875,2125.0,37.0,38.0,212256.0
121229.4306640625,2126.0,30.0,33.0,212251.0
121242.77172851562,2127.0,18.0,24.0,212242.0
121256.11303710938,2128.0,1.0,16.0,212234.0
121269.45434570312,2129.0,-16.0,9.0,212227.0
121282.79541015625,2130.0,-28.0,4.0,212222.0
121296.13671875,2131.0,-36.0,2.0,212220.0
121309.47778320312,2132.0,-38.0,2.0,212220.0
121322.81909179688,2133.0,-33.0,4.0,212222.0
121336.16040039062,2134.0,-27.0,6.0,212224.0
121349.50146484375,2135.0,-19.0,8.0,212226.0
121362.8427734375,2136.0,-10.0,10.0,212228.0
121376.18408203125,2137.0,-2.0,11.0,212229.0
121389.52514648438,2138.0,5.0,13.0,212231.0
121402.86645507812,2139.0,12.0,15.0,212233.0
121416.20751953125,2140.0,16.0,18.0,212236.0
121429.548828125,2141.0,19.0,19.0,212237.0
121442.89013671875,2142.0,21.0,17.0,212235.0
121456.23120117188,2143.0,23.0,15.0,212233.0
121469.57250976562,2144.0,25.0,14.0,212232.0
121482.91381835938,2145.0,25.0,15.0,212233.0
121496.2548828125,2146.0,24.0,17.0,212235.0
121509.59619140625,2147.0,23.0,19.0,212237.0
121522.9375,2148.0,20.0,18.0,212236.0
121536.27856445312,2149.0,15.0,16.0,212234.0
121549.61987304688,2150.0,8.0,12.0,212230.0
121562.9609375,2151.0,4.0,8.0,212226.0
121576.30224609375,2152.0,2.0,4.0,212222.0
121589.6435546875,2153.0,3.0,1.0,212219.0
121602.98461914062,2154.0,6.0,0.0,212218.0
121616.32592773438,2155.0,11.0,0.0,212218.0
121629.66723632812,2156.0,17.0,2.0,212220.0
121643.00830078125,2157.0,23.0,4.0,212222.0
121656.349609375,2158.0,28.0,4.0,212222.0
121669.69067382812,2159.0,30.0,4.0,212222.0
121683.03198242188,2160.0,30.0,6.0,212224.0
121696.37329101562,2161.0,29.0,8.0,212226.0
121709.71435546875,2162.0,28.0,8.0,212226.0
121723.0556640625,2163.0,28.0,8.0,212226.0
121736.39697265625,2164.0,30.0,10.0,212228.0
121749.73803710938,2165.0,32.0,11.0,212229.0
121763.07934570312,2166.0,35.0,11.0,212229.0
121776.42065429688,2167.0,38.0,11.0,212229.0
121789.76171875,2168.0,41.0,12.0,212230.0
121803.10302734375,2169.0,43.0,14.0,212232.0
121816.44409179688,2170.0,45.0,16.0,212234.0
121829.78540039062,2171.0,43.0,16.0,212234.0
121843.12670898438,2172.0,40.0,15.0,212233.0
121856.4677734375,2173.0,35.0,11.0,212229.0
121869.80908203125,2174.0,33.0,7.0,212225.0
121883.150390625,2175.0,30.0,5.0,212223.0
121896.49145507812,2176.0,24.0,4.0,212222.0
121909.83276367188,2177.0,17.0,1.0,212219.0
121923.173828125,2178.0,6.0,-4.0,212214.0
121936.51513671875,2179.0,-8.0,-12.0,212206.0
121949.8564453125,2180.0,-23.0,-22.0,212196.0
121963.19750976562,2181.0,-35.0,-31.0,212187.0
121976.53881835938,2182.0,-41.0,-35.0,212183.0
121989.88012695312,2183.0,-42.0,-37.0,212181.0
122003.22119140625,2184.0,-37.0,-37.0,212181.0
122016.5625,2185.0,-33.0,-34.0,212184.0
122029.90380859375,2186.0,-28.0,-30.0,212188.0
122043.24487304688,2187.0,-21.0,-24.0,212194.0
122056.58618164062,2188.0,-14.0,-19.0,212199.0
122069.92724609375,2189.0,-8.0,-14.0,212204.0
122083.2685546875,2190.0,-1.0,-10.0,212208.0
122096.60986328125,2191.0,6.0,-7.0,212211.0
122109.95092773438,2192.0,11.0,-4.0,212214.0
122123.29223632812,2193.0,15.0,-1.0,212217.0
122136.63354492188,2194.0,17.0,1.0,212219.0
122149.974609375,2195.0,18.0,2.0,212220.0
122163.31591796875,2196.0,18.0,4.0,212222.0
122176.65698242188,2197.0,17.0,5.0,212223.0
122189.99829101562,2198.0,16.0,5.0,212223.0
122203.33959960938,2199.0,13.0,4.0,212222.0
122216.6806640625,2200.0,9.0,-1.0,212217.0
122230.02197265625,2201.0,3.0,-6.0,212212.0
122243.36328125,2202.0,-4.0,-10.0,212208.0
122256.70434570312,2203.0,-8.0,-11.0,212207.0
122270.04565429688,2204.0,-10.0,-12.0,212206.0
122283.38696289062,2205.0,-11.0,-14.0,212204.0
122296.72802734375,2206.0,-10.0,-15.0,212203.0
122310.0693359375,2207.0,-8.0,-16.0,212202.0
122323.41040039062,2208.0,-6.0,-15.0,212203.0
122336.75170898438,2209.0,-4.0,-13.0,212205.0
122350.09301757812,2210.0,-1.0,-10.0,212208.0
122363.43408203125,2211.0,2.0,-8.0,212210.0
122376.775390625,2212.0,3.0,-4.0,212214.0
122390.11669921875,2213.0,5.0,0.0,212218.0
122403.45776367188,2214.0,6.0,4.0,212222.0
122416.79907226562,2215.0,7.0,9.0,212227.0
122430.14013671875,2216.0,6.0,12.0,212230.0
122443.4814453125,2217.0,6.0,14.0,212232.0
122456.82275390625,2218.0,7.0,16.0,212234.0
122470.16381835938,2219.0,7.0,17.0,212235.0
122483.50512695312,2220.0,8.0,21.0,212239.0
122496.84643554688,2221.0,8.0,23.0,212241.0
122510.1875,2222.0,9.0,24.0,212242.0
122523.52880859375,2223.0,11.0,24.0,212242.0
122536.86987304688,2224.0,14.0,23.0,212241.0
122550.21118164062,2225.0,16.0,21.0,212239.0
122563.55249023438,2226.0,16.0,18.0,212236.0
122576.8935546875,2227.0,10.0,11.0,212229.0
122590.23486328125,2228.0,-2.0,2.0,212220.0
122603.576171875,2229.0,-17.0,-7.0,212211.0
122616.91723632812,2230.0,-32.0,-17.0,212201.0
122630.25854492188,2231.0,-43.0,-24.0,212194.0
122643.59985351562,2232.0,-49.0,-31.0,212187.0
122656.94091796875,2233.0,-50.0,-34.0,212184.0
122670.2822265625,2234.0,-47.0,-34.0,212184.0
122683.62329101562,2235.0,-41.0,-31.0,212187.0
122696.96459960938,2236.0,-34.0,-27.0,212191.0
122710.30590820312,2237.0,-27.0,-20.0,212198.0
122723.64697265625,2238.0,-22.0,-14.0,212204.0
122736.98828125,2239.0,-20.0,-9.0,212209.0
122750.32958984375,2240.0,-19.0,-7.0,212211.0
122763.67065429688,2241.0,-16.0,-6.0,212212.0
122777.01196289062,2242.0,-13.0,-6.0,212212.0
122790.35302734375,2243.0,-9.0,-6.0,212212.0
122803.6943359375,2244.0,-4.0,-3.0,212215.0
122817.03564453125,2245.0,0.0,-1.0,212217.0
122830.37670898438,2246.0,2.0,0.0,212218.0
122843.71801757812,2247.0,4.0,-2.0,212216.0
122857.05932617188,2248.0,3.0,-4.0,212214.0
122870.400390625,2249.0,-1.0,-6.0,212212.0
122883.74169921875,2250.0,-6.0,-8.0,212210.0
122897.0830078125,2251.0,-11.0,-9.0,212209.0
122910.42407226562,2252.0,-15.0,-11.0,212207.0
122923.76538085938,2253.0,-17.0,-13.0,212205.0
122937.1064453125,2254.0,-15.0,-13.0,212205.0
122950.44775390625,2255.0,-13.0,-11.0,212207.0
122963.7890625,2256.0,-10.0,-9.0,212209.0
122977.13012695312,2257.0,-6.0,-8.0,212210.0
122990.47143554688,2258.0,-3.0,-6.0,212212.0
123003.81274414062,2259.0,-2.0,-5.0,212213.0
123017.15380859375,2260.0,-1.0,-3.0,212215.0
123030.4951171875,2261.0,0.0,-2.0,212216.0
123043.83618164062,2262.0,0.0,1.0,212219.0
123057.17749023438,2263.0,0.0,2.0,212220.0
123070.51879882812,2264.0,1.0,2.0,212220.0
123083.85986328125,2265.0,1.0,2.0,212220.0
123097.201171875,2266.0,1.0,3.0,212221.0
123110.54248046875,2267.0,1.0,5.0,212223.0
123123.88354492188,2268.0,0.0,7.0,212225.0
123137.22485351562,2269.0,0.0,10.0,212228.0
123150.56616210938,2270.0,1.0,14.0,212232.0
123163.9072265625,2271.0,4.0,16.0,212234.0
123177.24853515625,2272.0,5.0,14.0,212232.0
123190.58959960938,2273.0,4.0,10.0,212228.0
123203.93090820312,2274.0,-1.0,1.0,212219.0
123217.27221679688,2275.0,-12.0,-12.0,212206.0
123230.61328125,2276.0,-27.0,-25.0,212193.0
123243.95458984375,2277.0,-41.0,-37.0,212181.0
123257.2958984375,2278.0,-54.0,-47.0,212171.0
123270.63696289062,2279.0,-61.0,-52.0,212166.0
123283.97827148438,2280.0,-65.0,-54.0,212164.0
123297.3193359375,2281.0,-62.0,-50.0,212168.0
123310.66064453125,2282.0,-57.0,-44.0,212174.0
123324.001953125,2283.0,-51.0,-36.0,212182.0
123337.34301757812,2284.0,-45.0,-31.0,212187.0
123350.68432617188,2285.0,-38.0,-24.0,212194.0
123364.02563476562,2286.0,-32.0,-19.0,212199.0
123377.36669921875,2287.0,-25.0,-15.0,212203.0
123390.7080078125,2288.0,-18.0,-12.0,212206.0
123404.04931640625,2289.0,-12.0,-9.0,212209.0
123417.39038085938,2290.0,-9.0,-6.0,212212.0
123430.73168945312,2291.0,-6.0,-4.0,212214.0
123444.07275390625,2292.0,-5.0,-4.0,212214.0
123457.4140625,2293.0,-3.0,-5.0,212213.0
123470.75537109375,2294.0,-2.0,-7.0,212211.0
123484.09643554688,2295.0,-3.0,-8.0,212210.0
123497.43774414062,2296.0,-9.0,-9.0,212209.0
123510.77905273438,2297.0,-17.0,-12.0,212206.0
123524.1201171875,2298.0,-23.0,-16.0,212202.0
123537.46142578125,2299.0,-26.0,-18.0,212200.0
123550.80249023438,2300.0,-26.0,-21.0,212197.0
123564.14379882812,2301.0,-24.0,-22.0,212196.0
123577.48510742188,2302.0,-21.0,-22.0,212196.0
123590.826171875,2303.0,-17.0,-21.0,212197.0
123604.16748046875,2304.0,-12.0,-20.0,212198.0
123617.5087890625,2305.0,-8.0,-17.0,212201.0
123630.84985351562,2306.0,-5.0,-14.0,212204.0
123644.19116210938,2307.0,-1.0,-10.0,212208.0
123657.53247070312,2308.0,3.0,-5.0,212213.0
123670.87353515625,2309.0,7.0,0.0,212218.0
123684.21484375,2310.0,11.0,6.0,212224.0
123697.55590820312,2311.0,14.0,10.0,212228.0
123710.89721679688,2312.0,15.0,12.0,212230.0
123724.23852539062,2313.0,14.0,13.0,212231.0
123737.57958984375,2314.0,14.0,12.0,212230.0
123750.9208984375,2315.0,12.0,11.0,212229.0
123764.26220703125,2316.0,9.0,11.0,212229.0
123777.60327148438,2317.0,6.0,9.0,212227.0
123790.94458007812,2318.0,3.0,8.0,212226.0
123804.28564453125,2319.0,-1.0,5.0,212223.0
123817.626953125,2320.0,-4.0,3.0,212221.0
123830.96826171875,2321.0,-8.0,-2.0,212216.0
123844.30932617188,2322.0,-12.0,-5.0,212213.0
123857.65063476562,2323.0,-17.0,-8.0,212210.0
123870.99194335938,2324.0,-25.0,-11.0,212207.0
123884.3330078125,2325.0,-35.0,-15.0,212203.0
123897.67431640625,2326.0,-47.0,-20.0,212198.0
123911.01538085938,2327.0,-58.0,-24.0,212194.0
123924.35668945312,2328.0,-65.0,-25.0,212193.0
123937.69799804688,2329.0,-69.0,-26.0,212192.0
123951.0390625,2330.0,-70.0,-24.0,212194.0
123964.38037109375,2331.0,-68.0,-22.0,212196.0
123977.7216796875,2332.0,-64.0,-15.0,212203.0
123991.06274414062,2333.0,-57.0,-8.0,212210.0
124004.40405273438,2334.0,-48.0,0.0,212218.0
124017.74536132812,2335.0,-40.0,5.0,212223.0
124031.08642578125,2336.0,-33.0,7.0,212225.0
124044.427734375,2337.0,-29.0,7.0,212225.0
124057.76879882812,2338.0,-24.0,6.0,212224.0
124071.11010742188,2339.0,-20.0,5.0,212223.0
124084.45141601562,2340.0,-15.0,6.0,212224.0
124097.79248046875,2341.0,-10.0,7.0,212225.0
124111.1337890625,2342.0,-8.0,7.0,212225.0
124124.47509765625,2343.0,-6.0,5.0,212223.0
124137.81616210938,2344.0,-6.0,3.0,212221.0
124151.15747070312,2345.0,-8.0,0.0,212218.0
124164.49853515625,2346.0,-11.0,-3.0,212215.0
124177.83984375,2347.0,-15.0,-7.0,212211.0
124191.18115234375,2348.0,-19.0,-10.0,212208.0
124204.52221679688,2349.0,-22.0,-10.0,212208.0
124217.86352539062,2350.0,-24.0,-10.0,212208.0
124231.20483398438,2351.0,-25.0,-8.0,212210.0
124244.5458984375,2352.0,-23.0,-5.0,212213.0
124257.88720703125,2353.0,-19.0,-1.0,212217.0
124271.228515625,2354.0,-13.0,3.0,212221.0
124284.56958007812,2355.0,-9.0,7.0,212225.0
124297.91088867188,2356.0,-5.0,11.0,212229.0
124311.251953125,2357.0,-2.0,15.0,212233.0
124324.59326171875,2358.0,-1.0,19.0,212237.0
124337.9345703125,2359.0,1.0,20.0,212238.0
124351.27563476562,2360.0,2.0,22.0,212240.0
124364.61694335938,2361.0,5.0,23.0,212241.0
124377.95825195312,2362.0,7.0,21.0,212239.0
124391.29931640625,2363.0,8.0,17.0,212235.0
124404.640625,2364.0,7.0,17.0,212235.0
124417.98168945312,2365.0,7.0,19.0,212237.0
124431.32299804688,2366.0,8.0,21.0,212239.0
124444.66430664062,2367.0,11.0,23.0,212241.0
124458.00537109375,2368.0,13.0,23.0,212241.0
124471.3466796875,2369.0,15.0,22.0,212240.0
124484.68798828125,2370.0,14.0,20.0,212238.0
124498.02905273438,2371.0,12.0,18.0,212236.0
124511.37036132812,2372.0,11.0,16.0,212234.0
124524.71166992188,2373.0,12.0,15.0,212233.0
124538.052734375,2374.0,14.0,13.0,212231.0
124551.39404296875,2375.0,13.0,11.0,212229.0
124564.73510742188,2376.0,9.0,7.0,212225.0
124578.07641601562,2377.0,2.0,1.0,212219.0
124591.41772460938,2378.0,-7.0,-6.0,212212.0
124604.7587890625,2379.0,-18.0,-13.0,212205.0
124618.10009765625,2380.0,-28.0,-18.0,212200.0
124631.44140625,2381.0,-35.0,-20.0,212198.0
124644.78247070312,2382.0,-39.0,-19.0,212199.0
124658.12377929688,2383.0,-39.0,-17.0,212201.0
124671.46484375,2384.0,-37.0,-16.0,212202.0
124684.80615234375,2385.0,-31.0,-14.0,212204.0
124698.1474609375,2386.0,-26.0,-12.0,212206.0
124711.48852539062,2387.0,-20.0,-9.0,212209.0
124724.82983398438,2388.0,-14.0,-6.0,212212.0
124738.17114257812,2389.0,-9.0,-4.0,212214.0
124751.51220703125,2390.0,-3.0,0.0,212218.0
124764.853515625,2391.0,2.0,2.0,212220.0
124778.19482421875,2392.0,4.0,5.0,212223.0
124791.53588867188,2393.0,5.0,7.0,212225.0
124804.87719726562,2394.0,5.0,10.0,212228.0
124818.21826171875,2395.0,5.0,11.0,212229.0
124831.5595703125,2396.0,4.0,9.0,212227.0
124844.90087890625,2397.0,2.0,6.0,212224.0
124858.24194335938,2398.0,-2.0,2.0,212220.0
124871.58325195312,2399.0,-7.0,-3.0,212215.0
124884.92456054688,2400.0,-12.0,-7.0,212211.0
124898.265625,2401.0,-15.0,-9.0,212209.0
124911.60693359375,2402.0,-17.0,-10.0,212208.0
124924.94799804688,2403.0,-18.0,-9.0,212209.0
124938.28930664062,2404.0,-15.0,-7.0,212211.0
124951.63061523438,2405.0,-9.0,-3.0,212215.0
124964.9716796875,2406.0,-4.0,1.0,212219.0
124978.31298828125,2407.0,1.0,5.0,212223.0
124991.654296875,2408.0,5.0,8.0,212226.0
125004.99536132812,2409.0,8.0,9.0,212227.0
125018.33666992188,2410.0,8.0,10.0,212228.0
125031.67797851562,2411.0,8.0,9.0,212227.0
125045.01904296875,2412.0,5.0,8.0,212226.0
125058.3603515625,2413.0,2.0,7.0,212225.0
125071.70141601562,2414.0,0.0,7.0,212225.0
125085.04272460938,2415.0,-1.0,8.0,212226.0
125098.38403320312,2416.0,0.0,10.0,212228.0
125111.72509765625,2417.0,3.0,11.0,212229.0
125125.06640625,2418.0,7.0,11.0,212229.0
125138.40771484375,2419.0,11.0,11.0,212229.0
125151.74877929688,2420.0,15.0,12.0,212230.0
125165.09008789062,2421.0,20.0,13.0,212231.0
125178.43115234375,2422.0,25.0,14.0,212232.0
125191.7724609375,2423.0,28.0,14.0,212232.0
125205.11376953125,2424.0,30.0,13.0,212231.0
125218.45483398438,2425.0,28.0,8.0,212226.0
125231.79614257812,2426.0,20.0,0.0,212218.0
125245.13745117188,2427.0,7.0,-10.0,212208.0
125258.478515625,2428.0,-7.0,-21.0,212197.0
125271.81982421875,2429.0,-22.0,-33.0,212185.0
125285.16088867188,2430.0,-35.0,-41.0,212177.0
125298.50219726562,2431.0,-45.0,-44.0,212174.0
125311.84350585938,2432.0,-50.0,-45.0,212173.0
125325.1845703125,2433.0,-51.0,-43.0,212175.0
125338.52587890625,2434.0,-49.0,-40.0,212178.0
125351.8671875,2435.0,-47.0,-36.0,212182.0
125365.20825195312,2436.0,-43.0,-30.0,212188.0
125378.54956054688,2437.0,-39.0,-23.0,212195.0
125391.89086914062,2438.0,-32.0,-17.0,212201.0
125405.23193359375,2439.0,-25.0,-11.0,212207.0
125418.5732421875,2440.0,-19.0,-3.0,212215.0
125431.91430664062,2441.0,-12.0,3.0,212221.0
125445.25561523438,2442.0,-7.0,8.0,212226.0
125458.59692382812,2443.0,-5.0,10.0,212228.0
125471.93798828125,2444.0,-5.0,9.0,212227.0
125485.279296875,2445.0,-5.0,8.0,212226.0
125498.62060546875,2446.0,-5.0,5.0,212223.0
125511.96166992188,2447.0,-5.0,2.0,212220.0
125525.30297851562,2448.0,-8.0,-2.0,212216.0
125538.64404296875,2449.0,-12.0,-5.0,212213.0
125551.9853515625,2450.0,-16.0,-7.0,212211.0
125565.32666015625,2451.0,-20.0,-9.0,212209.0
125578.66772460938,2452.0,-24.0,-10.0,212208.0
125592.00903320312,2453.0,-26.0,-10.0,212208.0
125605.35034179688,2454.0,-25.0,-11.0,212207.0
125618.69140625,2455.0,-25.0,-13.0,212205.0
125632.03271484375,2456.0,-24.0,-15.0,212203.0
125645.3740234375,2457.0,-24.0,-18.0,212200.0
125658.71508789062,2458.0,-25.0,-18.0,212200.0
125672.05639648438,2459.0,-27.0,-16.0,212202.0
125685.3974609375,2460.0,-29.0,-13.0,212205.0
125698.73876953125,2461.0,-29.0,-8.0,212210.0
125712.080078125,2462.0,-29.0,-6.0,212212.0
125725.42114257812,2463.0,-30.0,-3.0,212215.0
125738.76245117188,2464.0,-29.0,-3.0,212215.0
125752.10375976562,2465.0,-27.0,-4.0,212214.0
125765.44482421875,2466.0,-23.0,-5.0,212213.0
125778.7861328125,2467.0,-19.0,-5.0,212213.0
125792.12719726562,2468.0,-15.0,-5.0,212213.0
125805.46850585938,2469.0,-10.0,-3.0,212215.0
125818.80981445312,2470.0,-7.0,0.0,212218.0
125832.15087890625,2471.0,-6.0,2.0,212220.0
125845.4921875,2472.0,-7.0,2.0,212220.0
125858.83349609375,2473.0,-6.0,2.0,212220.0
125872.17456054688,2474.0,-5.0,2.0,212220.0
125885.51586914062,2475.0,-4.0,3.0,212221.0
125898.85717773438,2476.0,-7.0,3.0,212221.0
125912.1982421875,2477.0,-14.0,2.0,212220.0
125925.53955078125,2478.0,-25.0,-1.0,212217.0
125938.88061523438,2479.0,-39.0,-6.0,212212.0
125952.22192382812,2480.0,-52.0,-12.0,212206.0
125965.56323242188,2481.0,-63.0,-19.0,212199.0
125978.904296875,2482.0,-69.0,-25.0,212193.0
125992.24560546875,2483.0,-74.0,-26.0,212192.0
126005.5869140625,2484.0,-74.0,-26.0,212192.0
126018.92797851562,2485.0,-70.0,-26.0,212192.0
126032.26928710938,2486.0,-63.0,-22.0,212196.0
126045.6103515625,2487.0,-54.0,-16.0,212202.0
126058.95166015625,2488.0,-45.0,-9.0,212209.0
126072.29296875,2489.0,-37.0,-4.0,212214.0
126085.63403320312,2490.0,-32.0,-1.0,212217.0
126098.97534179688,2491.0,-30.0,1.0,212219.0
126112.31665039062,2492.0,-28.0,0.0,212218.0
126125.65771484375,2493.0,-25.0,-4.0,212214.0
126138.9990234375,2494.0,-22.0,-8.0,212210.0
126152.34033203125,2495.0,-19.0,-10.0,212208.0
126165.68139648438,2496.0,-16.0,-9.0,212209.0
126179.02270507812,2497.0,-14.0,-8.0,212210.0
126192.36376953125,2498.0,-15.0,-6.0,212212.0
126205.705078125,2499.0,-19.0,-6.0,212212.0
126219.04638671875,2500.0,-25.0,-6.0,212212.0
126232.38745117188,2501.0,-30.0,-6.0,212212.0
126245.72875976562,2502.0,-36.0,-6.0,212212.0
