timestamp,sampleNum,BIOZI,BIOZQ,BIOZ
7725.3408203125,1.0,156178.0,-78927.0,133043.0
7738.681884765625,2.0,231529.0,-123767.0,88203.0
7752.022705078125,3.0,292899.0,-160964.0,51006.0
7765.363525390625,4.0,335685.0,-187345.0,24625.0
7778.70458984375,5.0,360845.0,-203218.0,8752.0
7792.04541015625,6.0,371964.0,-210589.0,1381.0
7805.38623046875,7.0,373332.0,-211970.0,0.0
7818.72705078125,8.0,368828.0,-209684.0,2286.0
7832.068115234375,9.0,361449.0,-205550.0,6420.0
7845.408935546875,10.0,353214.0,-200819.0,11151.0
7858.749755859375,11.0,345303.0,-196226.0,15744.0
7872.0908203125,12.0,338259.0,-192124.0,19846.0
7885.431640625,13.0,332214.0,-188607.0,23363.0
7898.7724609375,14.0,327068.0,-185623.0,26347.0
7912.113525390625,15.0,322620.0,-183060.0,28910.0
7925.454345703125,16.0,318654.0,-180787.0,31183.0
7938.795166015625,17.0,314980.0,-178697.0,33273.0
7952.135986328125,18.0,311465.0,-176704.0,35266.0
7965.47705078125,19.0,308017.0,-174752.0,37218.0
7978.81787109375,20.0,304590.0,-172812.0,39158.0
7992.15869140625,21.0,301161.0,-170871.0,41099.0
8005.499755859375,22.0,297728.0,-168927.0,43043.0
8018.840576171875,23.0,294296.0,-166982.0,44988.0
8032.181396484375,24.0,290875.0,-165042.0,46928.0
8045.5224609375,25.0,287475.0,-163114.0,48856.0
8058.86328125,26.0,284103.0,-161202.0,50768.0
8072.2041015625,27.0,280767.0,-159307.0,52663.0
8085.544921875,28.0,277470.0,-157435.0,54535.0
8098.885986328125,29.0,274216.0,-155585.0,56385.0
8112.226806640625,30.0,271000.0,-153756.0,58214.0
8125.567626953125,31.0,267824.0,-151949.0,60021.0
8138.90869140625,32.0,264688.0,-150164.0,61806.0
8152.24951171875,33.0,261587.0,-148401.0,63569.0
8165.59033203125,34.0,258523.0,-146662.0,65308.0
8178.931396484375,35.0,255492.0,-144945.0,67025.0
8192.272216796875,36.0,252496.0,-143250.0,68720.0
8205.613037109375,37.0,249534.0,-141574.0,70396.0
8218.953857421875,38.0,246606.0,-139919.0,72051.0
8232.294921875,39.0,243709.0,-138285.0,73685.0
8245.6357421875,40.0,240842.0,-136672.0,75298.0
8258.9765625,41.0,238009.0,-135077.0,76893.0
8272.317626953125,42.0,235212.0,-133499.0,78471.0
8285.658447265625,43.0,232452.0,-131939.0,80031.0
8298.999267578125,44.0,229727.0,-130395.0,81575.0
8312.34033203125,45.0,227036.0,-128866.0,83104.0
8325.68115234375,46.0,224379.0,-127354.0,84616.0
8339.02197265625,47.0,221754.0,-125859.0,86111.0
8352.36279296875,48.0,219160.0,-124382.0,87588.0
8365.703857421875,49.0,216597.0,-122923.0,89047.0
8379.044677734375,50.0,214064.0,-121483.0,90487.0
8392.385498046875,51.0,211560.0,-120058.0,91912.0
8405.7265625,52.0,209084.0,-118649.0,93321.0
8419.0673828125,53.0,206637.0,-117258.0,94712.0
8432.408203125,54.0,204218.0,-115882.0,96088.0
8445.749267578125,55.0,201827.0,-114524.0,97446.0
8459.090087890625,56.0,199462.0,-113183.0,98787.0
8472.430908203125,57.0,197119.0,-111858.0,100112.0
8485.771728515625,58.0,194802.0,-110551.0,101419.0
8499.11279296875,59.0,192511.0,-109262.0,102708.0
8512.45361328125,60.0,190246.0,-107987.0,103983.0
8525.79443359375,61.0,188009.0,-106725.0,105245.0
8539.135498046875,62.0,185802.0,-105477.0,106493.0
8552.476318359375,63.0,183624.0,-104241.0,107729.0
8565.817138671875,64.0,181472.0,-103019.0,108951.0
8579.158203125,65.0,179346.0,-101809.0,110161.0
8592.4990234375,66.0,177246.0,-100614.0,111356.0
8605.83984375,67.0,175171.0,-99434.0,112536.0
8619.1806640625,68.0,173123.0,-98268.0,113702.0
8632.521728515625,69.0,171097.0,-97114.0,114856.0
8645.862548828125,70.0,169094.0,-95976.0,115994.0
8659.203369140625,71.0,167111.0,-94851.0,117119.0
8672.54443359375,72.0,165151.0,-93739.0,118231.0
8685.88525390625,73.0,163215.0,-92640.0,119330.0
8699.22607421875,74.0,161302.0,-91553.0,120417.0
8712.567138671875,75.0,159411.0,-90479.0,121491.0
8725.907958984375,76.0,157542.0,-89421.0,122549.0
8739.248779296875,77.0,155694.0,-88376.0,123594.0
8752.589599609375,78.0,153868.0,-87342.0,124628.0
8765.9306640625,79.0,152063.0,-86318.0,125652.0
8779.271484375,80.0,150280.0,-85305.0,126665.0
8792.6123046875,81.0,148519.0,-84305.0,127665.0
8805.953369140625,82.0,146778.0,-83318.0,128652.0
8819.294189453125,83.0,145058.0,-82342.0,129628.0
8832.635009765625,84.0,143357.0,-81378.0,130592.0
8845.97607421875,85.0,141676.0,-80429.0,131541.0
8859.31689453125,86.0,140010.0,-79491.0,132479.0
8872.65771484375,87.0,138358.0,-78565.0,133405.0
8885.99853515625,88.0,136724.0,-77653.0,134317.0
8899.339599609375,89.0,135109.0,-76751.0,135219.0
8912.680419921875,90.0,133516.0,-75857.0,136113.0
8926.021240234375,91.0,131946.0,-74969.0,137001.0
8939.3623046875,92.0,130397.0,-74090.0,137880.0
8952.703125,93.0,128873.0,-73220.0,138750.0
8966.0439453125,94.0,127369.0,-72360.0,139610.0
8979.385009765625,95.0,125886.0,-71508.0,140462.0
8992.725830078125,96.0,124420.0,-70666.0,141304.0
9006.066650390625,97.0,122970.0,-69832.0,142138.0
9019.40771484375,98.0,121534.0,-69010.0,142960.0
9032.74853515625,99.0,120112.0,-68196.0,143774.0
9046.08935546875,100.0,118705.0,-67392.0,144578.0
9059.43017578125,101.0,117315.0,-66598.0,145372.0
9072.771240234375,102.0,115942.0,-65816.0,146154.0
9086.112060546875,103.0,114583.0,-65045.0,146925.0
9099.452880859375,104.0,113239.0,-64285.0,147685.0
9112.7939453125,105.0,111911.0,-63536.0,148434.0
9126.134765625,106.0,110597.0,-62798.0,149172.0
9139.4755859375,107.0,109296.0,-62066.0,149904.0
9152.816650390625,108.0,108011.0,-61340.0,150630.0
9166.157470703125,109.0,106744.0,-60620.0,151350.0
9179.498291015625,110.0,105494.0,-59908.0,152062.0
9192.839111328125,111.0,104261.0,-59204.0,152766.0
9206.18017578125,112.0,103042.0,-58508.0,153462.0
9219.52099609375,113.0,101839.0,-57821.0,154149.0
9232.86181640625,114.0,100649.0,-57142.0,154828.0
9246.202880859375,115.0,99471.0,-56471.0,155499.0
9259.543701171875,116.0,98305.0,-55809.0,156161.0
9272.884521484375,117.0,97153.0,-55154.0,156816.0
9286.2255859375,118.0,96016.0,-54507.0,157463.0
9299.56640625,119.0,94891.0,-53867.0,158103.0
9312.9072265625,120.0,93777.0,-53235.0,158735.0
9326.248046875,121.0,92675.0,-52612.0,159358.0
9339.589111328125,122.0,91587.0,-51995.0,159975.0
9352.929931640625,123.0,90515.0,-51384.0,160586.0
9366.270751953125,124.0,89457.0,-50779.0,161191.0
9379.61181640625,125.0,88414.0,-50180.0,161790.0
9392.95263671875,126.0,87383.0,-49588.0,162382.0
9406.29345703125,127.0,86364.0,-49002.0,162968.0
9419.634521484375,128.0,85357.0,-48425.0,163545.0
9432.975341796875,129.0,84362.0,-47853.0,164117.0
9446.316162109375,130.0,83378.0,-47287.0,164683.0
9459.656982421875,131.0,82405.0,-46729.0,165241.0
9472.998046875,132.0,81444.0,-46181.0,165789.0
9486.3388671875,133.0,80492.0,-45642.0,166328.0
9499.6796875,134.0,79547.0,-45114.0,166856.0
9513.020751953125,135.0,78607.0,-44596.0,167374.0
9526.361572265625,136.0,77677.0,-44085.0,167885.0
9539.702392578125,137.0,76757.0,-43580.0,168390.0
9553.04345703125,138.0,75847.0,-43077.0,168893.0
9566.38427734375,139.0,74951.0,-42578.0,169392.0
9579.72509765625,140.0,74069.0,-42082.0,169888.0
9593.06591796875,141.0,73200.0,-41589.0,170381.0
9606.406982421875,142.0,72345.0,-41098.0,170872.0
9619.747802734375,143.0,71502.0,-40611.0,171359.0
9633.088623046875,144.0,70669.0,-40130.0,171840.0
9646.4296875,145.0,69844.0,-39656.0,172314.0
9659.7705078125,146.0,69027.0,-39189.0,172781.0
9673.111328125,147.0,68220.0,-38729.0,173241.0
9686.452392578125,148.0,67422.0,-38274.0,173696.0
9699.793212890625,149.0,66631.0,-37824.0,174146.0
9713.134033203125,150.0,65849.0,-37378.0,174592.0
9726.474853515625,151.0,65078.0,-36939.0,175031.0
9739.81591796875,152.0,64317.0,-36504.0,175466.0
9753.15673828125,153.0,63563.0,-36075.0,175895.0
9766.49755859375,154.0,62819.0,-35649.0,176321.0
9779.838623046875,155.0,62083.0,-35229.0,176741.0
9793.179443359375,156.0,61354.0,-34814.0,177156.0
9806.520263671875,157.0,60632.0,-34406.0,177564.0
9819.861328125,158.0,59919.0,-34006.0,177964.0
9833.2021484375,159.0,59214.0,-33612.0,178358.0
9846.54296875,160.0,58516.0,-33221.0,178749.0
9859.8837890625,161.0,57826.0,-32833.0,179137.0
9873.224853515625,162.0,57145.0,-32451.0,179519.0
9886.565673828125,163.0,56473.0,-32069.0,179901.0
9899.906494140625,164.0,55811.0,-31690.0,180280.0
9913.24755859375,165.0,55157.0,-31317.0,180653.0
9926.58837890625,166.0,54512.0,-30950.0,181020.0
9939.92919921875,167.0,53875.0,-30586.0,181384.0
9953.270263671875,168.0,53244.0,-30227.0,181743.0
9966.611083984375,169.0,52620.0,-29872.0,182098.0
9979.951904296875,170.0,52005.0,-29521.0,182449.0
9993.292724609375,171.0,51398.0,-29175.0,182795.0
10006.6337890625,172.0,50801.0,-28832.0,183138.0
10019.974609375,173.0,50212.0,-28492.0,183478.0
10033.3154296875,174.0,49630.0,-28155.0,183815.0
10046.656494140625,175.0,49057.0,-27822.0,184148.0
10059.997314453125,176.0,48488.0,-27497.0,184473.0
10073.338134765625,177.0,47921.0,-27178.0,184792.0
10086.67919921875,178.0,47355.0,-26865.0,185105.0
10100.02001953125,179.0,46788.0,-26559.0,185411.0
10113.36083984375,180.0,46224.0,-26259.0,185711.0
10126.70166015625,181.0,45664.0,-25962.0,186008.0
10140.042724609375,182.0,45116.0,-25666.0,186304.0
10153.383544921875,183.0,44578.0,-25369.0,186601.0
10166.724365234375,184.0,44053.0,-25073.0,186897.0
10180.0654296875,185.0,43537.0,-24776.0,187194.0
10193.40625,186.0,43030.0,-24481.0,187489.0
10206.7470703125,187.0,42530.0,-24188.0,187782.0
10220.088134765625,188.0,42037.0,-23898.0,188072.0
10233.428955078125,189.0,41549.0,-23609.0,188361.0
10246.769775390625,190.0,41067.0,-23322.0,188648.0
10260.11083984375,191.0,40594.0,-23040.0,188930.0
10273.45166015625,192.0,40125.0,-22762.0,189208.0
10286.79248046875,193.0,39661.0,-22488.0,189482.0
10300.13330078125,194.0,39201.0,-22221.0,189749.0
10313.474365234375,195.0,38748.0,-21959.0,190011.0
10326.815185546875,196.0,38300.0,-21701.0,190269.0
10340.156005859375,197.0,37856.0,-21445.0,190525.0
10353.4970703125,198.0,37417.0,-21194.0,190776.0
10366.837890625,199.0,36980.0,-20949.0,191021.0
10380.1787109375,200.0,36545.0,-20707.0,191263.0
10393.519775390625,201.0,36111.0,-20467.0,191503.0
10406.860595703125,202.0,35683.0,-20230.0,191740.0
10420.201416015625,203.0,35261.0,-19994.0,191976.0
10433.542236328125,204.0,34845.0,-19761.0,192209.0
10446.88330078125,205.0,34437.0,-19531.0,192439.0
10460.22412109375,206.0,34035.0,-19302.0,192668.0
10473.56494140625,207.0,33638.0,-19073.0,192897.0
10486.906005859375,208.0,33245.0,-18846.0,193124.0
10500.246826171875,209.0,32856.0,-18620.0,193350.0
10513.587646484375,210.0,32474.0,-18396.0,193574.0
10526.9287109375,211.0,32097.0,-18175.0,193795.0
10540.26953125,212.0,31723.0,-17959.0,194011.0
10553.6103515625,213.0,31352.0,-17747.0,194223.0
10566.951171875,214.0,30987.0,-17539.0,194431.0
10580.292236328125,215.0,30626.0,-17335.0,194635.0
10593.633056640625,216.0,30270.0,-17132.0,194838.0
10606.973876953125,217.0,29920.0,-16930.0,195040.0
10620.31494140625,218.0,29574.0,-16731.0,195239.0
10633.65576171875,219.0,29233.0,-16534.0,195436.0
10646.99658203125,220.0,28894.0,-16340.0,195630.0
10660.337646484375,221.0,28557.0,-16148.0,195822.0
10673.678466796875,222.0,28224.0,-15958.0,196012.0
10687.019287109375,223.0,27892.0,-15771.0,196199.0
10700.360107421875,224.0,27560.0,-15589.0,196381.0
10713.701171875,225.0,27226.0,-15411.0,196559.0
10727.0419921875,226.0,26892.0,-15236.0,196734.0
10740.3828125,227.0,26562.0,-15065.0,196905.0
10753.723876953125,228.0,26236.0,-14895.0,197075.0
10767.064697265625,229.0,25917.0,-14726.0,197244.0
10780.405517578125,230.0,25606.0,-14557.0,197413.0
10793.74658203125,231.0,25303.0,-14388.0,197582.0
10807.08740234375,232.0,25007.0,-14219.0,197751.0
10820.42822265625,233.0,24718.0,-14050.0,197920.0
10833.76904296875,234.0,24434.0,-13882.0,198088.0
10847.110107421875,235.0,24155.0,-13716.0,198254.0
10860.450927734375,236.0,23879.0,-13552.0,198418.0
10873.791748046875,237.0,23606.0,-13390.0,198580.0
10887.1328125,238.0,23335.0,-13230.0,198740.0
10900.4736328125,239.0,23068.0,-13072.0,198898.0
10913.814453125,240.0,22804.0,-12916.0,199054.0
10927.155517578125,241.0,22542.0,-12763.0,199207.0
10940.496337890625,242.0,22282.0,-12610.0,199360.0
10953.837158203125,243.0,22023.0,-12459.0,199511.0
10967.177978515625,244.0,21764.0,-12312.0,199658.0
10980.51904296875,245.0,21505.0,-12170.0,199800.0
10993.85986328125,246.0,21247.0,-12032.0,199938.0
11007.20068359375,247.0,20992.0,-11895.0,200075.0
11020.541748046875,248.0,20742.0,-11759.0,200211.0
11033.882568359375,249.0,20497.0,-11624.0,200346.0
11047.223388671875,250.0,20256.0,-11490.0,200480.0
11060.564453125,251.0,20018.0,-11355.0,200615.0
11073.9052734375,252.0,19786.0,-11221.0,200749.0
11087.24609375,253.0,19556.0,-11088.0,200882.0
11100.5869140625,254.0,19328.0,-10956.0,201014.0
11113.927978515625,255.0,19102.0,-10827.0,201143.0
11127.268798828125,256.0,18879.0,-10700.0,201270.0
11140.609619140625,257.0,18660.0,-10574.0,201396.0
11153.95068359375,258.0,18444.0,-10451.0,201519.0
11167.29150390625,259.0,18230.0,-10330.0,201640.0
11180.63232421875,260.0,18020.0,-10209.0,201761.0
11193.973388671875,261.0,17811.0,-10089.0,201881.0
11207.314208984375,262.0,17603.0,-9970.0,202000.0
11220.655029296875,263.0,17396.0,-9851.0,202119.0
11233.995849609375,264.0,17191.0,-9734.0,202236.0
11247.3369140625,265.0,16987.0,-9619.0,202351.0
11260.677734375,266.0,16787.0,-9504.0,202466.0
11274.0185546875,267.0,16592.0,-9389.0,202581.0
11287.359619140625,268.0,16400.0,-9274.0,202696.0
11300.700439453125,269.0,16211.0,-9162.0,202808.0
11314.041259765625,270.0,16024.0,-9051.0,202919.0
11327.38232421875,271.0,15838.0,-8944.0,203026.0
11340.72314453125,272.0,15652.0,-8842.0,203128.0
11354.06396484375,273.0,15463.0,-8745.0,203225.0
11367.40478515625,274.0,15273.0,-8651.0,203319.0
11380.745849609375,275.0,15086.0,-8561.0,203409.0
11394.086669921875,276.0,14902.0,-8471.0,203499.0
11407.427490234375,277.0,14724.0,-8378.0,203592.0
11420.7685546875,278.0,14552.0,-8283.0,203687.0
11434.109375,279.0,14385.0,-8186.0,203784.0
11447.4501953125,280.0,14219.0,-8089.0,203881.0
11460.791259765625,281.0,14054.0,-7992.0,203978.0
11474.132080078125,282.0,13891.0,-7898.0,204072.0
11487.472900390625,283.0,13729.0,-7805.0,204165.0
11500.81396484375,284.0,13568.0,-7713.0,204257.0
11514.15478515625,285.0,13407.0,-7621.0,204349.0
11527.49560546875,286.0,13247.0,-7530.0,204440.0
11540.83642578125,287.0,13092.0,-7440.0,204530.0
11554.177490234375,288.0,12940.0,-7350.0,204620.0
11567.518310546875,289.0,12792.0,-7259.0,204711.0
11580.859130859375,290.0,12645.0,-7173.0,204797.0
11594.2001953125,291.0,12499.0,-7091.0,204879.0
11607.541015625,292.0,12353.0,-7011.0,204959.0
11620.8818359375,293.0,12206.0,-6932.0,205038.0
11634.222900390625,294.0,12061.0,-6853.0,205117.0
11647.563720703125,295.0,11918.0,-6774.0,205196.0
11660.904541015625,296.0,11777.0,-6697.0,205273.0
11674.245361328125,297.0,11637.0,-6619.0,205351.0
11687.58642578125,298.0,11500.0,-6540.0,205430.0
11700.92724609375,299.0,11365.0,-6460.0,205510.0
11714.26806640625,300.0,11234.0,-6382.0,205588.0
11727.609130859375,301.0,11104.0,-6305.0,205665.0
11740.949951171875,302.0,10975.0,-6231.0,205739.0
11754.290771484375,303.0,10851.0,-6157.0,205813.0
11767.6318359375,304.0,10728.0,-6085.0,205885.0
11780.97265625,305.0,10607.0,-6011.0,205959.0
11794.3134765625,306.0,10485.0,-5939.0,206031.0
11807.654296875,307.0,10367.0,-5868.0,206102.0
11820.995361328125,308.0,10248.0,-5800.0,206170.0
11834.336181640625,309.0,10129.0,-5732.0,206238.0
11847.677001953125,310.0,10009.0,-5662.0,206308.0
11861.01806640625,311.0,9890.0,-5594.0,206376.0
11874.35888671875,312.0,9774.0,-5528.0,206442.0
11887.69970703125,313.0,9661.0,-5461.0,206509.0
11901.040771484375,314.0,9548.0,-5395.0,206575.0
11914.381591796875,315.0,9437.0,-5331.0,206639.0
11927.722412109375,316.0,9326.0,-5269.0,206701.0
11941.063232421875,317.0,9216.0,-5207.0,206763.0
11954.404296875,318.0,9107.0,-5144.0,206826.0
11967.7451171875,319.0,9000.0,-5082.0,206888.0
11981.0859375,320.0,8894.0,-5019.0,206951.0
11994.427001953125,321.0,8791.0,-4960.0,207010.0
12007.767822265625,322.0,8688.0,-4901.0,207069.0
12021.108642578125,323.0,8586.0,-4845.0,207125.0
12034.44970703125,324.0,8484.0,-4789.0,207181.0
12047.79052734375,325.0,8378.0,-4738.0,207232.0
12061.13134765625,326.0,8270.0,-4689.0,207281.0
12074.47216796875,327.0,8161.0,-4643.0,207327.0
12087.813232421875,328.0,8054.0,-4596.0,207374.0
12101.154052734375,329.0,7951.0,-4548.0,207422.0
12114.494873046875,330.0,7854.0,-4498.0,207472.0
12127.8359375,331.0,7761.0,-4444.0,207526.0
12141.1767578125,332.0,7672.0,-4389.0,207581.0
12154.517578125,333.0,7587.0,-4333.0,207637.0
12167.858642578125,334.0,7503.0,-4279.0,207691.0
12181.199462890625,335.0,7420.0,-4225.0,207745.0
12194.540283203125,336.0,7338.0,-4172.0,207798.0
12207.881103515625,337.0,7257.0,-4120.0,207850.0
12221.22216796875,338.0,7179.0,-4068.0,207902.0
12234.56298828125,339.0,7100.0,-4016.0,207954.0
12247.90380859375,340.0,7019.0,-3965.0,208005.0
12261.244873046875,341.0,6938.0,-3916.0,208054.0
12274.585693359375,342.0,6859.0,-3868.0,208102.0
12287.926513671875,343.0,6780.0,-3824.0,208146.0
12301.267578125,344.0,6701.0,-3782.0,208188.0
12314.6083984375,345.0,6618.0,-3743.0,208227.0
12327.94921875,346.0,6536.0,-3706.0,208264.0
12341.2900390625,347.0,6454.0,-3670.0,208300.0
12354.631103515625,348.0,6373.0,-3631.0,208339.0
12367.971923828125,349.0,6296.0,-3590.0,208380.0
12381.312744140625,350.0,6222.0,-3547.0,208423.0
12394.65380859375,351.0,6152.0,-3504.0,208466.0
12407.99462890625,352.0,6084.0,-3462.0,208508.0
12421.33544921875,353.0,6017.0,-3418.0,208552.0
12434.676513671875,354.0,5952.0,-3374.0,208596.0
12448.017333984375,355.0,5889.0,-3329.0,208641.0
12461.358154296875,356.0,5830.0,-3284.0,208686.0
12474.698974609375,357.0,5772.0,-3240.0,208730.0
12488.0400390625,358.0,5711.0,-3198.0,208772.0
12501.380859375,359.0,5651.0,-3159.0,208811.0
12514.7216796875,360.0,5589.0,-3121.0,208849.0
12528.062744140625,361.0,5527.0,-3083.0,208887.0
12541.403564453125,362.0,5464.0,-3045.0,208925.0
12554.744384765625,363.0,5401.0,-3010.0,208960.0
12568.08544921875,364.0,5338.0,-2978.0,208992.0
12581.42626953125,365.0,5275.0,-2945.0,209025.0
12594.76708984375,366.0,5212.0,-2911.0,209059.0
12608.10791015625,367.0,5151.0,-2877.0,209093.0
12621.448974609375,368.0,5091.0,-2843.0,209127.0
12634.789794921875,369.0,5031.0,-2811.0,209159.0
12648.130615234375,370.0,4972.0,-2779.0,209191.0
12661.4716796875,371.0,4915.0,-2747.0,209223.0
12674.8125,372.0,4858.0,-2715.0,209255.0
12688.1533203125,373.0,4801.0,-2682.0,209288.0
12701.494384765625,374.0,4745.0,-2651.0,209319.0
12714.835205078125,375.0,4692.0,-2621.0,209349.0
12728.176025390625,376.0,4638.0,-2590.0,209380.0
12741.51708984375,377.0,4584.0,-2558.0,209412.0
12754.85791015625,378.0,4532.0,-2528.0,209442.0
12768.19873046875,379.0,4478.0,-2498.0,209472.0
12781.53955078125,380.0,4417.0,-2468.0,209502.0
12794.880615234375,381.0,4352.0,-2440.0,209530.0
12808.221435546875,382.0,4287.0,-2414.0,209556.0
12821.562255859375,383.0,4224.0,-2392.0,209578.0
12834.9033203125,384.0,4166.0,-2371.0,209599.0
12848.244140625,385.0,4114.0,-2348.0,209622.0
12861.5849609375,386.0,4068.0,-2322.0,209648.0
12874.926025390625,387.0,4024.0,-2294.0,209676.0
12888.266845703125,388.0,3981.0,-2264.0,209706.0
12901.607666015625,389.0,3940.0,-2234.0,209736.0
12914.948486328125,390.0,3899.0,-2202.0,209768.0
12928.28955078125,391.0,3858.0,-2170.0,209800.0
12941.63037109375,392.0,3819.0,-2140.0,209830.0
12954.97119140625,393.0,3780.0,-2112.0,209858.0
12968.312255859375,394.0,3742.0,-2086.0,209884.0
12981.653076171875,395.0,3704.0,-2062.0,209908.0
12994.993896484375,396.0,3666.0,-2040.0,209930.0
13008.3349609375,397.0,3626.0,-2019.0,209951.0
13021.67578125,398.0,3584.0,-1996.0,209974.0
13035.0166015625,399.0,3538.0,-1974.0,209996.0
13048.357421875,400.0,3491.0,-1952.0,210018.0
13061.698486328125,401.0,3444.0,-1931.0,210039.0
13075.039306640625,402.0,3398.0,-1910.0,210060.0
13088.380126953125,403.0,3355.0,-1891.0,210079.0
13101.72119140625,404.0,3314.0,-1872.0,210098.0
13115.06201171875,405.0,3274.0,-1852.0,210118.0
13128.40283203125,406.0,3236.0,-1830.0,210140.0
13141.743896484375,407.0,3200.0,-1808.0,210162.0
13155.084716796875,408.0,3167.0,-1784.0,210186.0
13168.425537109375,409.0,3133.0,-1758.0,210212.0
13181.766357421875,410.0,3099.0,-1732.0,210238.0
13195.107421875,411.0,3068.0,-1708.0,210262.0
13208.4482421875,412.0,3037.0,-1687.0,210283.0
13221.7890625,413.0,3005.0,-1668.0,210302.0
13235.130126953125,414.0,2972.0,-1649.0,210321.0
13248.470947265625,415.0,2939.0,-1630.0,210340.0
13261.811767578125,416.0,2908.0,-1611.0,210359.0
13275.15283203125,417.0,2877.0,-1590.0,210380.0
13288.49365234375,418.0,2845.0,-1569.0,210401.0
13301.83447265625,419.0,2814.0,-1549.0,210421.0
13315.17529296875,420.0,2781.0,-1529.0,210441.0
13328.516357421875,421.0,2748.0,-1509.0,210461.0
13341.857177734375,422.0,2717.0,-1490.0,210480.0
13355.197998046875,423.0,2685.0,-1472.0,210498.0
13368.5390625,424.0,2655.0,-1454.0,210516.0
13381.8798828125,425.0,2625.0,-1438.0,210532.0
13395.220703125,426.0,2595.0,-1423.0,210547.0
13408.561767578125,427.0,2566.0,-1410.0,210560.0
13421.902587890625,428.0,2538.0,-1395.0,210575.0
13435.243408203125,429.0,2510.0,-1377.0,210593.0
13448.584228515625,430.0,2481.0,-1358.0,210612.0
13461.92529296875,431.0,2453.0,-1338.0,210632.0
13475.26611328125,432.0,2425.0,-1317.0,210653.0
13488.60693359375,433.0,2400.0,-1297.0,210673.0
13501.947998046875,434.0,2374.0,-1280.0,210690.0
13515.288818359375,435.0,2344.0,-1267.0,210703.0
13528.629638671875,436.0,2309.0,-1258.0,210712.0
13541.970703125,437.0,2268.0,-1252.0,210718.0
13555.3115234375,438.0,2227.0,-1248.0,210722.0
13568.65234375,439.0,2186.0,-1244.0,210726.0
13581.9931640625,440.0,2149.0,-1237.0,210733.0
13595.334228515625,441.0,2117.0,-1227.0,210743.0
13608.675048828125,442.0,2091.0,-1213.0,210757.0
13622.015869140625,443.0,2071.0,-1196.0,210774.0
13635.35693359375,444.0,2054.0,-1178.0,210792.0
13648.69775390625,445.0,2040.0,-1159.0,210811.0
13662.03857421875,446.0,2025.0,-1141.0,210829.0
13675.379638671875,447.0,2009.0,-1124.0,210846.0
13688.720458984375,448.0,1989.0,-1110.0,210860.0
13702.061279296875,449.0,1970.0,-1097.0,210873.0
13715.402099609375,450.0,1952.0,-1083.0,210887.0
13728.7431640625,451.0,1933.0,-1070.0,210900.0
13742.083984375,452.0,1913.0,-1058.0,210912.0
13755.4248046875,453.0,1893.0,-1047.0,210923.0
13768.765869140625,454.0,1871.0,-1039.0,210931.0
13782.106689453125,455.0,1847.0,-1029.0,210941.0
13795.447509765625,456.0,1821.0,-1020.0,210950.0
13808.78857421875,457.0,1796.0,-1010.0,210960.0
13822.12939453125,458.0,1770.0,-1000.0,210970.0
13835.47021484375,459.0,1745.0,-989.0,210981.0
13848.81103515625,460.0,1721.0,-978.0,210992.0
13862.152099609375,461.0,1696.0,-965.0,211005.0
13875.492919921875,462.0,1675.0,-953.0,211017.0
13888.833740234375,463.0,1655.0,-939.0,211031.0
13902.1748046875,464.0,1637.0,-924.0,211046.0
13915.515625,465.0,1620.0,-907.0,211063.0
13928.8564453125,466.0,1606.0,-891.0,211079.0
13942.197509765625,467.0,1595.0,-876.0,211094.0
13955.538330078125,468.0,1582.0,-861.0,211109.0
13968.879150390625,469.0,1568.0,-847.0,211123.0
13982.22021484375,470.0,1553.0,-835.0,211135.0
13995.56103515625,471.0,1539.0,-825.0,211145.0
14008.90185546875,472.0,1523.0,-817.0,211153.0
14022.24267578125,473.0,1506.0,-811.0,211159.0
14035.583740234375,474.0,1489.0,-803.0,211167.0
14048.924560546875,475.0,1471.0,-794.0,211176.0
14062.265380859375,476.0,1453.0,-783.0,211187.0
14075.6064453125,477.0,1436.0,-772.0,211198.0
14088.947265625,478.0,1420.0,-761.0,211209.0
14102.2880859375,479.0,1405.0,-751.0,211219.0
14115.629150390625,480.0,1390.0,-740.0,211230.0
14128.969970703125,481.0,1375.0,-730.0,211240.0
14142.310791015625,482.0,1360.0,-721.0,211249.0
14155.651611328125,483.0,1344.0,-714.0,211256.0
14168.99267578125,484.0,1329.0,-706.0,211264.0
14182.33349609375,485.0,1313.0,-699.0,211271.0
14195.67431640625,486.0,1298.0,-691.0,211279.0
14209.015380859375,487.0,1282.0,-683.0,211287.0
14222.356201171875,488.0,1266.0,-675.0,211295.0
14235.697021484375,489.0,1246.0,-671.0,211299.0
14249.0380859375,490.0,1219.0,-669.0,211301.0
14262.37890625,491.0,1192.0,-669.0,211301.0
14275.7197265625,492.0,1166.0,-671.0,211299.0
14289.060546875,493.0,1143.0,-671.0,211299.0
14302.401611328125,494.0,1124.0,-669.0,211301.0
14315.742431640625,495.0,1109.0,-664.0,211306.0
14329.083251953125,496.0,1095.0,-657.0,211313.0
14342.42431640625,497.0,1083.0,-647.0,211323.0
14355.76513671875,498.0,1072.0,-637.0,211333.0
14369.10595703125,499.0,1064.0,-624.0,211346.0
14382.447021484375,500.0,1057.0,-611.0,211359.0
14395.787841796875,501.0,1052.0,-598.0,211372.0
14409.128662109375,502.0,1046.0,-587.0,211383.0
14422.469482421875,503.0,1039.0,-576.0,211394.0
14435.810546875,504.0,1031.0,-567.0,211403.0
14449.1513671875,505.0,1021.0,-560.0,211410.0
14462.4921875,506.0,1010.0,-555.0,211415.0
14475.833251953125,507.0,999.0,-549.0,211421.0
14489.174072265625,508.0,987.0,-543.0,211427.0
14502.514892578125,509.0,974.0,-536.0,211434.0
14515.85595703125,510.0,960.0,-531.0,211439.0
14529.19677734375,511.0,946.0,-527.0,211443.0
14542.53759765625,512.0,933.0,-525.0,211445.0
14555.87841796875,513.0,922.0,-522.0,211448.0
14569.219482421875,514.0,910.0,-519.0,211451.0
14582.560302734375,515.0,900.0,-512.0,211458.0
14595.901123046875,516.0,890.0,-504.0,211466.0
14609.2421875,517.0,882.0,-496.0,211474.0
14622.5830078125,518.0,873.0,-485.0,211485.0
14635.923828125,519.0,867.0,-475.0,211495.0
14649.264892578125,520.0,861.0,-467.0,211503.0
14662.605712890625,521.0,856.0,-460.0,211510.0
14675.946533203125,522.0,849.0,-454.0,211516.0
14689.287353515625,523.0,841.0,-446.0,211524.0
14702.62841796875,524.0,833.0,-439.0,211531.0
14715.96923828125,525.0,824.0,-431.0,211539.0
14729.31005859375,526.0,814.0,-422.0,211548.0
14742.651123046875,527.0,804.0,-413.0,211557.0
14755.991943359375,528.0,795.0,-405.0,211565.0
14769.332763671875,529.0,785.0,-399.0,211571.0
14782.673828125,530.0,778.0,-394.0,211576.0
14796.0146484375,531.0,771.0,-390.0,211580.0
14809.35546875,532.0,763.0,-387.0,211583.0
14822.6962890625,533.0,753.0,-385.0,211585.0
14836.037353515625,534.0,742.0,-383.0,211587.0
14849.378173828125,535.0,735.0,-382.0,211588.0
14862.718994140625,536.0,727.0,-380.0,211590.0
14876.06005859375,537.0,721.0,-379.0,211591.0
14889.40087890625,538.0,711.0,-377.0,211593.0
14902.74169921875,539.0,697.0,-379.0,211591.0
14916.082763671875,540.0,679.0,-383.0,211587.0
14929.423583984375,541.0,658.0,-387.0,211583.0
14942.764404296875,542.0,635.0,-392.0,211578.0
14956.105224609375,543.0,615.0,-393.0,211577.0
14969.4462890625,544.0,597.0,-389.0,211581.0
14982.787109375,545.0,584.0,-383.0,211587.0
14996.1279296875,546.0,577.0,-373.0,211597.0
15009.468994140625,547.0,574.0,-363.0,211607.0
15022.809814453125,548.0,573.0,-354.0,211616.0
15036.150634765625,549.0,572.0,-345.0,211625.0
15049.49169921875,550.0,572.0,-337.0,211633.0
15062.83251953125,551.0,571.0,-331.0,211639.0
15076.17333984375,552.0,571.0,-327.0,211643.0
15089.51416015625,553.0,572.0,-322.0,211648.0
15102.855224609375,554.0,571.0,-317.0,211653.0
15116.196044921875,555.0,569.0,-313.0,211657.0
15129.536865234375,556.0,567.0,-310.0,211660.0
15142.8779296875,557.0,564.0,-306.0,211664.0
15156.21875,558.0,556.0,-303.0,211667.0
15169.5595703125,559.0,546.0,-303.0,211667.0
15182.900634765625,560.0,534.0,-304.0,211666.0
15196.241455078125,561.0,521.0,-306.0,211664.0
15209.582275390625,562.0,506.0,-308.0,211662.0
15222.92333984375,563.0,493.0,-309.0,211661.0
15236.26416015625,564.0,481.0,-311.0,211659.0
15249.60498046875,565.0,471.0,-309.0,211661.0
15262.94580078125,566.0,462.0,-305.0,211665.0
15276.286865234375,567.0,456.0,-299.0,211671.0
15289.627685546875,568.0,451.0,-291.0,211679.0
15302.968505859375,569.0,451.0,-283.0,211687.0
15316.3095703125,570.0,454.0,-276.0,211694.0
15329.650390625,571.0,459.0,-269.0,211701.0
15342.9912109375,572.0,461.0,-265.0,211705.0
15356.332275390625,573.0,462.0,-261.0,211709.0
15369.673095703125,574.0,460.0,-258.0,211712.0
15383.013916015625,575.0,458.0,-254.0,211716.0
15396.354736328125,576.0,457.0,-250.0,211720.0
15409.69580078125,577.0,455.0,-247.0,211723.0
15423.03662109375,578.0,454.0,-244.0,211726.0
15436.37744140625,579.0,451.0,-240.0,211730.0
15449.718505859375,580.0,447.0,-238.0,211732.0
15463.059326171875,581.0,442.0,-236.0,211734.0
15476.400146484375,582.0,436.0,-234.0,211736.0
15489.7412109375,583.0,428.0,-231.0,211739.0
15503.08203125,584.0,420.0,-229.0,211741.0
15516.4228515625,585.0,411.0,-225.0,211745.0
15529.763671875,586.0,405.0,-220.0,211750.0
15543.104736328125,587.0,401.0,-217.0,211753.0
15556.445556640625,588.0,397.0,-213.0,211757.0
15569.786376953125,589.0,389.0,-213.0,211757.0
15583.12744140625,590.0,376.0,-215.0,211755.0
15596.46826171875,591.0,362.0,-221.0,211749.0
15609.80908203125,592.0,346.0,-227.0,211743.0
15623.150146484375,593.0,331.0,-233.0,211737.0
15636.490966796875,594.0,318.0,-241.0,211729.0
15649.831787109375,595.0,310.0,-247.0,211723.0
15663.172607421875,596.0,307.0,-249.0,211721.0
15676.513671875,597.0,306.0,-247.0,211723.0
15689.8544921875,598.0,307.0,-241.0,211729.0
15703.1953125,599.0,309.0,-230.0,211740.0
15716.536376953125,600.0,311.0,-218.0,211752.0
15729.877197265625,601.0,314.0,-207.0,211763.0
15743.218017578125,602.0,313.0,-198.0,211772.0
15756.55908203125,603.0,311.0,-190.0,211780.0
15769.89990234375,604.0,308.0,-185.0,211785.0
15783.24072265625,605.0,303.0,-181.0,211789.0
15796.58154296875,606.0,297.0,-177.0,211793.0
15809.922607421875,607.0,291.0,-173.0,211797.0
15823.263427734375,608.0,287.0,-168.0,211802.0
15836.604248046875,609.0,281.0,-163.0,211807.0
15849.9453125,610.0,275.0,-160.0,211810.0
15863.2861328125,611.0,268.0,-160.0,211810.0
15876.626953125,612.0,260.0,-161.0,211809.0
15889.968017578125,613.0,251.0,-162.0,211808.0
15903.308837890625,614.0,246.0,-164.0,211806.0
15916.649658203125,615.0,242.0,-164.0,211806.0
15929.990478515625,616.0,241.0,-164.0,211806.0
15943.33154296875,617.0,242.0,-161.0,211809.0
15956.67236328125,618.0,243.0,-157.0,211813.0
15970.01318359375,619.0,244.0,-153.0,211817.0
15983.354248046875,620.0,243.0,-146.0,211824.0
15996.695068359375,621.0,243.0,-141.0,211829.0
16010.035888671875,622.0,241.0,-136.0,211834.0
16023.376953125,623.0,239.0,-133.0,211837.0
16036.7177734375,624.0,236.0,-128.0,211842.0
16050.05859375,625.0,235.0,-126.0,211844.0
16063.3994140625,626.0,235.0,-124.0,211846.0
16076.740478515625,627.0,232.0,-124.0,211846.0
16090.081298828125,628.0,230.0,-125.0,211845.0
16103.422119140625,629.0,230.0,-126.0,211844.0
16116.76318359375,630.0,230.0,-125.0,211845.0
16130.10400390625,631.0,228.0,-125.0,211845.0
16143.44482421875,632.0,226.0,-124.0,211846.0
16156.785888671875,633.0,225.0,-125.0,211845.0
16170.126708984375,634.0,223.0,-125.0,211845.0
16183.467529296875,635.0,221.0,-122.0,211848.0
16196.808349609375,636.0,219.0,-120.0,211850.0
16210.1494140625,637.0,217.0,-115.0,211855.0
16223.490234375,638.0,217.0,-111.0,211859.0
16236.8310546875,639.0,215.0,-107.0,211863.0
16250.172119140625,640.0,213.0,-102.0,211868.0
16263.512939453125,641.0,208.0,-101.0,211869.0
16276.853759765625,642.0,199.0,-103.0,211867.0
16290.19482421875,643.0,184.0,-108.0,211862.0
16303.53564453125,644.0,167.0,-115.0,211855.0
16316.87646484375,645.0,153.0,-122.0,211848.0
16330.21728515625,646.0,141.0,-129.0,211841.0
16343.558349609375,647.0,131.0,-132.0,211838.0
16356.899169921875,648.0,128.0,-132.0,211838.0
16370.239990234375,649.0,131.0,-129.0,211841.0
16383.5810546875,650.0,137.0,-124.0,211846.0
16396.921875,651.0,142.0,-118.0,211852.0
16410.2626953125,652.0,147.0,-110.0,211860.0
16423.603759765625,653.0,154.0,-101.0,211869.0
16436.944580078125,654.0,158.0,-94.0,211876.0
16450.285400390625,655.0,159.0,-87.0,211883.0
16463.62646484375,656.0,159.0,-82.0,211888.0
16476.96728515625,657.0,159.0,-79.0,211891.0
16490.30810546875,658.0,158.0,-77.0,211893.0
16503.64892578125,659.0,157.0,-76.0,211894.0
16516.989990234375,660.0,158.0,-76.0,211894.0
16530.330810546875,661.0,157.0,-79.0,211891.0
16543.671630859375,662.0,153.0,-84.0,211886.0
16557.0126953125,663.0,148.0,-89.0,211881.0
16570.353515625,664.0,141.0,-93.0,211877.0
16583.6943359375,665.0,137.0,-97.0,211873.0
16597.035400390625,666.0,135.0,-100.0,211870.0
16610.376220703125,667.0,137.0,-101.0,211869.0
16623.717041015625,668.0,138.0,-101.0,211869.0
16637.057861328125,669.0,141.0,-100.0,211870.0
16650.39892578125,670.0,144.0,-97.0,211873.0
16663.73974609375,671.0,145.0,-91.0,211879.0
16677.08056640625,672.0,146.0,-85.0,211885.0
16690.421630859375,673.0,147.0,-80.0,211890.0
16703.762451171875,674.0,146.0,-78.0,211892.0
16717.103271484375,675.0,145.0,-78.0,211892.0
16730.4443359375,676.0,145.0,-78.0,211892.0
16743.78515625,677.0,145.0,-78.0,211892.0
16757.1259765625,678.0,148.0,-77.0,211893.0
16770.466796875,679.0,151.0,-77.0,211893.0
16783.807861328125,680.0,155.0,-76.0,211894.0
16797.148681640625,681.0,158.0,-74.0,211896.0
16810.489501953125,682.0,162.0,-71.0,211899.0
16823.83056640625,683.0,163.0,-67.0,211903.0
16837.17138671875,684.0,164.0,-63.0,211907.0
16850.51220703125,685.0,163.0,-62.0,211908.0
16863.853271484375,686.0,161.0,-60.0,211910.0
16877.194091796875,687.0,159.0,-59.0,211911.0
16890.534912109375,688.0,156.0,-58.0,211912.0
16903.875732421875,689.0,153.0,-55.0,211915.0
16917.216796875,690.0,151.0,-51.0,211919.0
16930.5576171875,691.0,150.0,-49.0,211921.0
16943.8984375,692.0,150.0,-47.0,211923.0
16957.239501953125,693.0,148.0,-49.0,211921.0
16970.580322265625,694.0,142.0,-57.0,211913.0
16983.921142578125,695.0,131.0,-67.0,211903.0
16997.26220703125,696.0,118.0,-76.0,211894.0
17010.60302734375,697.0,103.0,-83.0,211887.0
17023.94384765625,698.0,93.0,-87.0,211883.0
17037.28466796875,699.0,86.0,-89.0,211881.0
17050.625732421875,700.0,82.0,-89.0,211881.0
17063.966552734375,701.0,80.0,-85.0,211885.0
17077.307373046875,702.0,82.0,-81.0,211889.0
17090.6484375,703.0,86.0,-74.0,211896.0
17103.9892578125,704.0,93.0,-69.0,211901.0
17117.330078125,705.0,100.0,-62.0,211908.0
17130.671142578125,706.0,107.0,-55.0,211915.0
17144.011962890625,707.0,113.0,-49.0,211921.0
17157.352783203125,708.0,118.0,-44.0,211926.0
17170.693603515625,709.0,122.0,-40.0,211930.0
17184.03466796875,710.0,127.0,-40.0,211930.0
17197.37548828125,711.0,128.0,-41.0,211929.0
17210.71630859375,712.0,129.0,-43.0,211927.0
17224.057373046875,713.0,127.0,-45.0,211925.0
17237.398193359375,714.0,123.0,-48.0,211922.0
17250.739013671875,715.0,115.0,-50.0,211920.0
17264.080078125,716.0,108.0,-53.0,211917.0
17277.4208984375,717.0,102.0,-54.0,211916.0
17290.76171875,718.0,96.0,-51.0,211919.0
17304.1025390625,719.0,90.0,-48.0,211922.0
17317.443603515625,720.0,89.0,-43.0,211927.0
17330.784423828125,721.0,92.0,-40.0,211930.0
17344.125244140625,722.0,96.0,-37.0,211933.0
17357.46630859375,723.0,101.0,-37.0,211933.0
17370.80712890625,724.0,104.0,-36.0,211934.0
17384.14794921875,725.0,107.0,-35.0,211935.0
17397.489013671875,726.0,109.0,-34.0,211936.0
17410.829833984375,727.0,111.0,-32.0,211938.0
17424.170654296875,728.0,111.0,-30.0,211940.0
17437.511474609375,729.0,112.0,-28.0,211942.0
17450.8525390625,730.0,112.0,-28.0,211942.0
17464.193359375,731.0,114.0,-27.0,211943.0
17477.5341796875,732.0,115.0,-23.0,211947.0
17490.875244140625,733.0,116.0,-19.0,211951.0
17504.216064453125,734.0,119.0,-16.0,211954.0
17517.556884765625,735.0,120.0,-14.0,211956.0
17530.89794921875,736.0,119.0,-15.0,211955.0
17544.23876953125,737.0,119.0,-15.0,211955.0
17557.57958984375,738.0,118.0,-17.0,211953.0
17570.92041015625,739.0,118.0,-19.0,211951.0
17584.261474609375,740.0,119.0,-21.0,211949.0
17597.602294921875,741.0,118.0,-22.0,211948.0
17610.943115234375,742.0,117.0,-21.0,211949.0
17624.2841796875,743.0,116.0,-19.0,211951.0
17637.625,744.0,112.0,-20.0,211950.0
17650.9658203125,745.0,103.0,-23.0,211947.0
17664.306884765625,746.0,89.0,-29.0,211941.0
17677.647705078125,747.0,72.0,-39.0,211931.0
17690.988525390625,748.0,56.0,-47.0,211923.0
17704.32958984375,749.0,43.0,-55.0,211915.0
17717.67041015625,750.0,35.0,-59.0,211911.0
17731.01123046875,751.0,31.0,-61.0,211909.0
17744.35205078125,752.0,31.0,-59.0,211911.0
17757.693115234375,753.0,36.0,-53.0,211917.0
17771.033935546875,754.0,44.0,-47.0,211923.0
17784.374755859375,755.0,52.0,-43.0,211927.0
17797.7158203125,756.0,56.0,-37.0,211933.0
17811.056640625,757.0,59.0,-32.0,211938.0
17824.3974609375,758.0,65.0,-30.0,211940.0
17837.738525390625,759.0,69.0,-28.0,211942.0
17851.079345703125,760.0,73.0,-29.0,211941.0
17864.420166015625,761.0,77.0,-31.0,211939.0
17877.760986328125,762.0,81.0,-30.0,211940.0
17891.10205078125,763.0,83.0,-29.0,211941.0
17904.44287109375,764.0,84.0,-28.0,211942.0
17917.78369140625,765.0,83.0,-27.0,211943.0
17931.124755859375,766.0,79.0,-29.0,211941.0
17944.465576171875,767.0,73.0,-31.0,211939.0
17957.806396484375,768.0,65.0,-34.0,211936.0
17971.1474609375,769.0,59.0,-38.0,211932.0
17984.48828125,770.0,53.0,-40.0,211930.0
17997.8291015625,771.0,49.0,-43.0,211927.0
18011.169921875,772.0,44.0,-44.0,211926.0
18024.510986328125,773.0,42.0,-45.0,211925.0
18037.851806640625,774.0,38.0,-42.0,211928.0
18051.192626953125,775.0,35.0,-40.0,211930.0
18064.53369140625,776.0,33.0,-39.0,211931.0
18077.87451171875,777.0,35.0,-38.0,211932.0
18091.21533203125,778.0,36.0,-36.0,211934.0
18104.556396484375,779.0,39.0,-33.0,211937.0
18117.897216796875,780.0,44.0,-28.0,211942.0
18131.238037109375,781.0,47.0,-23.0,211947.0
18144.578857421875,782.0,49.0,-19.0,211951.0
18157.919921875,783.0,50.0,-15.0,211955.0
18171.2607421875,784.0,51.0,-12.0,211958.0
18184.6015625,785.0,53.0,-7.0,211963.0
18197.942626953125,786.0,53.0,-3.0,211967.0
18211.283447265625,787.0,54.0,4.0,211974.0
18224.624267578125,788.0,55.0,10.0,211980.0
18237.96533203125,789.0,54.0,13.0,211983.0
18251.30615234375,790.0,52.0,12.0,211982.0
18264.64697265625,791.0,49.0,10.0,211980.0
18277.98779296875,792.0,47.0,7.0,211977.0
18291.328857421875,793.0,46.0,3.0,211973.0
18304.669677734375,794.0,45.0,-1.0,211969.0
18318.010498046875,795.0,41.0,-7.0,211963.0
18331.3515625,796.0,31.0,-13.0,211957.0
18344.6923828125,797.0,18.0,-21.0,211949.0
18358.033203125,798.0,4.0,-29.0,211941.0
18371.374267578125,799.0,-9.0,-38.0,211932.0
18384.715087890625,800.0,-18.0,-46.0,211924.0
18398.055908203125,801.0,-22.0,-51.0,211919.0
18411.396728515625,802.0,-21.0,-51.0,211919.0
18424.73779296875,803.0,-16.0,-50.0,211920.0
18438.07861328125,804.0,-11.0,-46.0,211924.0
18451.41943359375,805.0,-7.0,-43.0,211927.0
18464.760498046875,806.0,-2.0,-38.0,211932.0
18478.101318359375,807.0,2.0,-33.0,211937.0
18491.442138671875,808.0,7.0,-27.0,211943.0
18504.783203125,809.0,10.0,-20.0,211950.0
18518.1240234375,810.0,12.0,-14.0,211956.0
18531.46484375,811.0,15.0,-11.0,211959.0
18544.8056640625,812.0,18.0,-10.0,211960.0
18558.146728515625,813.0,19.0,-8.0,211962.0
18571.487548828125,814.0,21.0,-8.0,211962.0
18584.828369140625,815.0,22.0,-8.0,211962.0
18598.16943359375,816.0,22.0,-10.0,211960.0
18611.51025390625,817.0,18.0,-13.0,211957.0
18624.85107421875,818.0,13.0,-17.0,211953.0
18638.192138671875,819.0,7.0,-20.0,211950.0
18651.532958984375,820.0,2.0,-21.0,211949.0
18664.873779296875,821.0,-4.0,-22.0,211948.0
18678.214599609375,822.0,-9.0,-23.0,211947.0
18691.5556640625,823.0,-14.0,-24.0,211946.0
18704.896484375,824.0,-16.0,-24.0,211946.0
18718.2373046875,825.0,-16.0,-23.0,211947.0
18731.578369140625,826.0,-12.0,-21.0,211949.0
18744.919189453125,827.0,-7.0,-17.0,211953.0
18758.260009765625,828.0,0.0,-15.0,211955.0
18771.60107421875,829.0,6.0,-15.0,211955.0
18784.94189453125,830.0,11.0,-15.0,211955.0
18798.28271484375,831.0,14.0,-15.0,211955.0
18811.62353515625,832.0,18.0,-15.0,211955.0
18824.964599609375,833.0,19.0,-13.0,211957.0
18838.305419921875,834.0,20.0,-12.0,211958.0
18851.646240234375,835.0,19.0,-10.0,211960.0
18864.9873046875,836.0,19.0,-8.0,211962.0
18878.328125,837.0,19.0,-6.0,211964.0
18891.6689453125,838.0,18.0,-5.0,211965.0
18905.010009765625,839.0,19.0,-6.0,211964.0
18918.350830078125,840.0,20.0,-6.0,211964.0
18931.691650390625,841.0,22.0,-7.0,211963.0
18945.03271484375,842.0,22.0,-9.0,211961.0
18958.37353515625,843.0,22.0,-10.0,211960.0
18971.71435546875,844.0,19.0,-9.0,211961.0
18985.05517578125,845.0,14.0,-9.0,211961.0
18998.396240234375,846.0,9.0,-11.0,211959.0
19011.737060546875,847.0,-1.0,-16.0,211954.0
19025.077880859375,848.0,-13.0,-23.0,211947.0
19038.4189453125,849.0,-25.0,-29.0,211941.0
19051.759765625,850.0,-37.0,-36.0,211934.0
19065.1005859375,851.0,-47.0,-43.0,211927.0
19078.441650390625,852.0,-52.0,-47.0,211923.0
19091.782470703125,853.0,-54.0,-47.0,211923.0
19105.123291015625,854.0,-50.0,-45.0,211925.0
19118.464111328125,855.0,-43.0,-42.0,211928.0
19131.80517578125,856.0,-35.0,-40.0,211930.0
19145.14599609375,857.0,-27.0,-37.0,211933.0
19158.48681640625,858.0,-19.0,-32.0,211938.0
19171.827880859375,859.0,-12.0,-29.0,211941.0
19185.168701171875,860.0,-7.0,-26.0,211944.0
19198.509521484375,861.0,-5.0,-22.0,211948.0
19211.8505859375,862.0,-4.0,-19.0,211951.0
19225.19140625,863.0,-1.0,-17.0,211953.0
19238.5322265625,864.0,2.0,-14.0,211956.0
19251.873046875,865.0,4.0,-13.0,211957.0
19265.214111328125,866.0,2.0,-14.0,211956.0
19278.554931640625,867.0,-5.0,-17.0,211953.0
19291.895751953125,868.0,-11.0,-22.0,211948.0
19305.23681640625,869.0,-17.0,-27.0,211943.0
19318.57763671875,870.0,-21.0,-30.0,211940.0
19331.91845703125,871.0,-23.0,-32.0,211938.0
19345.259521484375,872.0,-24.0,-32.0,211938.0
19358.600341796875,873.0,-22.0,-32.0,211938.0
19371.941162109375,874.0,-22.0,-33.0,211937.0
19385.281982421875,875.0,-21.0,-32.0,211938.0
19398.623046875,876.0,-20.0,-31.0,211939.0
19411.9638671875,877.0,-16.0,-28.0,211942.0
19425.3046875,878.0,-13.0,-26.0,211944.0
19438.645751953125,879.0,-10.0,-23.0,211947.0
19451.986572265625,880.0,-4.0,-20.0,211950.0
19465.327392578125,881.0,3.0,-16.0,211954.0
19478.66845703125,882.0,9.0,-13.0,211957.0
19492.00927734375,883.0,14.0,-10.0,211960.0
19505.35009765625,884.0,19.0,-8.0,211962.0
19518.69091796875,885.0,24.0,-5.0,211965.0
19532.031982421875,886.0,26.0,-2.0,211968.0
19545.372802734375,887.0,29.0,0.0,211970.0
19558.713623046875,888.0,31.0,0.0,211970.0
19572.0546875,889.0,31.0,-3.0,211967.0
19585.3955078125,890.0,33.0,-4.0,211966.0
19598.736328125,891.0,36.0,-4.0,211966.0
19612.077392578125,892.0,38.0,-2.0,211968.0
19625.418212890625,893.0,40.0,-1.0,211969.0
19638.759033203125,894.0,39.0,-1.0,211969.0
19652.099853515625,895.0,36.0,-3.0,211967.0
19665.44091796875,896.0,29.0,-8.0,211962.0
19678.78173828125,897.0,15.0,-16.0,211954.0
19692.12255859375,898.0,0.0,-23.0,211947.0
19705.463623046875,899.0,-12.0,-30.0,211940.0
19718.804443359375,900.0,-21.0,-33.0,211937.0
19732.145263671875,901.0,-26.0,-34.0,211936.0
19745.486328125,902.0,-26.0,-34.0,211936.0
19758.8271484375,903.0,-24.0,-32.0,211938.0
19772.16796875,904.0,-19.0,-31.0,211939.0
19785.5087890625,905.0,-13.0,-29.0,211941.0
19798.849853515625,906.0,-8.0,-28.0,211942.0
19812.190673828125,907.0,-4.0,-27.0,211943.0
19825.531494140625,908.0,-2.0,-22.0,211948.0
19838.87255859375,909.0,0.0,-16.0,211954.0
19852.21337890625,910.0,1.0,-10.0,211960.0
19865.55419921875,911.0,2.0,-5.0,211965.0
19878.895263671875,912.0,2.0,-1.0,211969.0
19892.236083984375,913.0,2.0,0.0,211970.0
19905.576904296875,914.0,2.0,0.0,211970.0
19918.917724609375,915.0,1.0,-1.0,211969.0
19932.2587890625,916.0,-4.0,-3.0,211967.0
19945.599609375,917.0,-9.0,-5.0,211965.0
19958.9404296875,918.0,-13.0,-7.0,211963.0
19972.281494140625,919.0,-16.0,-9.0,211961.0
19985.622314453125,920.0,-19.0,-12.0,211958.0
19998.963134765625,921.0,-20.0,-15.0,211955.0
20012.30419921875,922.0,-20.0,-15.0,211955.0
20025.64501953125,923.0,-19.0,-12.0,211958.0
20038.98583984375,924.0,-20.0,-6.0,211964.0
20052.32666015625,925.0,-19.0,-1.0,211969.0
20065.667724609375,926.0,-17.0,-1.0,211969.0
20079.008544921875,927.0,-13.0,-2.0,211968.0
20092.349365234375,928.0,-8.0,-4.0,211966.0
20105.6904296875,929.0,-4.0,-4.0,211966.0
20119.03125,930.0,0.0,-2.0,211968.0
20132.3720703125,931.0,4.0,2.0,211972.0
20145.713134765625,932.0,5.0,6.0,211976.0
20159.053955078125,933.0,5.0,8.0,211978.0
20172.394775390625,934.0,3.0,7.0,211977.0
20185.73583984375,935.0,1.0,4.0,211974.0
20199.07666015625,936.0,-1.0,1.0,211971.0
20212.41748046875,937.0,-2.0,-3.0,211967.0
20225.75830078125,938.0,-2.0,-5.0,211965.0
20239.099365234375,939.0,0.0,-6.0,211964.0
20252.440185546875,940.0,2.0,-6.0,211964.0
20265.781005859375,941.0,4.0,-7.0,211963.0
20279.1220703125,942.0,1.0,-9.0,211961.0
20292.462890625,943.0,-7.0,-12.0,211958.0
20305.8037109375,944.0,-17.0,-19.0,211951.0
20319.144775390625,945.0,-31.0,-27.0,211943.0
20332.485595703125,946.0,-42.0,-34.0,211936.0
20345.826416015625,947.0,-52.0,-38.0,211932.0
20359.167236328125,948.0,-55.0,-40.0,211930.0
20372.50830078125,949.0,-56.0,-38.0,211932.0
20385.84912109375,950.0,-54.0,-35.0,211935.0
20399.18994140625,951.0,-48.0,-30.0,211940.0
20412.531005859375,952.0,-41.0,-24.0,211946.0
20425.871826171875,953.0,-33.0,-18.0,211952.0
20439.212646484375,954.0,-26.0,-13.0,211957.0
20452.5537109375,955.0,-18.0,-9.0,211961.0
20465.89453125,956.0,-11.0,-6.0,211964.0
20479.2353515625,957.0,-6.0,-4.0,211966.0
20492.576171875,958.0,-3.0,-2.0,211968.0
20505.917236328125,959.0,0.0,-1.0,211969.0
20519.258056640625,960.0,2.0,-1.0,211969.0
20532.598876953125,961.0,2.0,-1.0,211969.0
20545.93994140625,962.0,0.0,-2.0,211968.0
20559.28076171875,963.0,-5.0,-2.0,211968.0
20572.62158203125,964.0,-10.0,-2.0,211968.0
20585.962646484375,965.0,-14.0,-3.0,211967.0
20599.303466796875,966.0,-17.0,-5.0,211965.0
20612.644287109375,967.0,-19.0,-6.0,211964.0
20625.985107421875,968.0,-20.0,-7.0,211963.0
20639.326171875,969.0,-19.0,-9.0,211961.0
20652.6669921875,970.0,-16.0,-9.0,211961.0
20666.0078125,971.0,-13.0,-7.0,211963.0
20679.348876953125,972.0,-9.0,-5.0,211965.0
20692.689697265625,973.0,-8.0,-4.0,211966.0
20706.030517578125,974.0,-7.0,-4.0,211966.0
20719.37158203125,975.0,-7.0,-5.0,211965.0
20732.71240234375,976.0,-5.0,-5.0,211965.0
20746.05322265625,977.0,-1.0,-6.0,211964.0
20759.39404296875,978.0,2.0,-5.0,211965.0
20772.735107421875,979.0,4.0,-4.0,211966.0
20786.075927734375,980.0,4.0,-4.0,211966.0
20799.416748046875,981.0,6.0,-5.0,211965.0
20812.7578125,982.0,8.0,-7.0,211963.0
20826.0986328125,983.0,10.0,-7.0,211963.0
20839.439453125,984.0,13.0,-6.0,211964.0
20852.780517578125,985.0,15.0,-5.0,211965.0
20866.121337890625,986.0,17.0,-4.0,211966.0
20879.462158203125,987.0,20.0,-3.0,211967.0
20892.802978515625,988.0,21.0,-1.0,211969.0
20906.14404296875,989.0,22.0,0.0,211970.0
20919.48486328125,990.0,18.0,0.0,211970.0
20932.82568359375,991.0,12.0,-2.0,211968.0
20946.166748046875,992.0,1.0,-5.0,211965.0
20959.507568359375,993.0,-14.0,-10.0,211960.0
20972.848388671875,994.0,-28.0,-18.0,211952.0
20986.189453125,995.0,-38.0,-27.0,211943.0
20999.5302734375,996.0,-46.0,-34.0,211936.0
21012.87109375,997.0,-50.0,-37.0,211933.0
21026.2119140625,998.0,-50.0,-39.0,211931.0
21039.552978515625,999.0,-46.0,-38.0,211932.0
21052.893798828125,1000.0,-42.0,-35.0,211935.0
21066.234619140625,1001.0,-37.0,-30.0,211940.0
21079.57568359375,1002.0,-32.0,-23.0,211947.0
21092.91650390625,1003.0,-24.0,-18.0,211952.0
21106.25732421875,1004.0,-18.0,-15.0,211955.0
21119.598388671875,1005.0,-13.0,-13.0,211957.0
21132.939208984375,1006.0,-8.0,-9.0,211961.0
21146.280029296875,1007.0,-2.0,-6.0,211964.0
21159.620849609375,1008.0,3.0,-2.0,211968.0
21172.9619140625,1009.0,7.0,1.0,211971.0
21186.302734375,1010.0,11.0,3.0,211973.0
21199.6435546875,1011.0,13.0,3.0,211973.0
21212.984619140625,1012.0,12.0,1.0,211971.0
21226.325439453125,1013.0,7.0,-2.0,211968.0
21239.666259765625,1014.0,0.0,-5.0,211965.0
21253.00732421875,1015.0,-5.0,-8.0,211962.0
21266.34814453125,1016.0,-9.0,-10.0,211960.0
21279.68896484375,1017.0,-12.0,-10.0,211960.0
21293.02978515625,1018.0,-14.0,-10.0,211960.0
21306.370849609375,1019.0,-13.0,-10.0,211960.0
21319.711669921875,1020.0,-11.0,-12.0,211958.0
21333.052490234375,1021.0,-7.0,-11.0,211959.0
21346.3935546875,1022.0,-4.0,-10.0,211960.0
21359.734375,1023.0,0.0,-8.0,211962.0
21373.0751953125,1024.0,6.0,-6.0,211964.0
21386.416259765625,1025.0,12.0,-5.0,211965.0
21399.757080078125,1026.0,16.0,-4.0,211966.0
21413.097900390625,1027.0,20.0,-5.0,211965.0
21426.43896484375,1028.0,25.0,-6.0,211964.0
21439.77978515625,1029.0,29.0,-6.0,211964.0
21453.12060546875,1030.0,33.0,-5.0,211965.0
21466.46142578125,1031.0,35.0,-5.0,211965.0
21479.802490234375,1032.0,37.0,-4.0,211966.0
21493.143310546875,1033.0,36.0,-2.0,211968.0
21506.484130859375,1034.0,37.0,-1.0,211969.0
21519.8251953125,1035.0,36.0,-1.0,211969.0
21533.166015625,1036.0,36.0,1.0,211971.0
21546.5068359375,1037.0,36.0,3.0,211973.0
21559.847900390625,1038.0,34.0,5.0,211975.0
21573.188720703125,1039.0,35.0,6.0,211976.0
21586.529541015625,1040.0,35.0,6.0,211976.0
21599.870361328125,1041.0,37.0,7.0,211977.0
21613.21142578125,1042.0,39.0,8.0,211978.0
21626.55224609375,1043.0,40.0,9.0,211979.0
21639.89306640625,1044.0,38.0,10.0,211980.0
21653.234130859375,1045.0,31.0,9.0,211979.0
21666.574951171875,1046.0,19.0,5.0,211975.0
21679.915771484375,1047.0,6.0,-2.0,211968.0
21693.2568359375,1048.0,-5.0,-9.0,211961.0
21706.59765625,1049.0,-13.0,-17.0,211953.0
21719.9384765625,1050.0,-20.0,-25.0,211945.0
21733.279296875,1051.0,-24.0,-30.0,211940.0
21746.620361328125,1052.0,-25.0,-34.0,211936.0
21759.961181640625,1053.0,-21.0,-35.0,211935.0
21773.302001953125,1054.0,-18.0,-33.0,211937.0
21786.64306640625,1055.0,-14.0,-29.0,211941.0
21799.98388671875,1056.0,-9.0,-25.0,211945.0
21813.32470703125,1057.0,-4.0,-20.0,211950.0
21826.665771484375,1058.0,1.0,-17.0,211953.0
21840.006591796875,1059.0,7.0,-12.0,211958.0
21853.347412109375,1060.0,13.0,-8.0,211962.0
21866.688232421875,1061.0,18.0,-4.0,211966.0
21880.029296875,1062.0,20.0,1.0,211971.0
21893.3701171875,1063.0,21.0,3.0,211973.0
21906.7109375,1064.0,20.0,3.0,211973.0
21920.052001953125,1065.0,16.0,2.0,211972.0
21933.392822265625,1066.0,11.0,1.0,211971.0
21946.733642578125,1067.0,6.0,1.0,211971.0
21960.07470703125,1068.0,2.0,0.0,211970.0
21973.41552734375,1069.0,-1.0,0.0,211970.0
21986.75634765625,1070.0,-3.0,-1.0,211969.0
22000.09716796875,1071.0,-2.0,-4.0,211966.0
22013.438232421875,1072.0,1.0,-7.0,211963.0
22026.779052734375,1073.0,5.0,-8.0,211962.0
22040.119873046875,1074.0,9.0,-6.0,211964.0
22053.4609375,1075.0,13.0,-3.0,211967.0
22066.8017578125,1076.0,18.0,1.0,211971.0
22080.142578125,1077.0,22.0,5.0,211975.0
22093.483642578125,1078.0,23.0,8.0,211978.0
22106.824462890625,1079.0,24.0,9.0,211979.0
22120.165283203125,1080.0,25.0,6.0,211976.0
22133.506103515625,1081.0,25.0,4.0,211974.0
22146.84716796875,1082.0,27.0,3.0,211973.0
22160.18798828125,1083.0,29.0,2.0,211972.0
22173.52880859375,1084.0,30.0,1.0,211971.0
22186.869873046875,1085.0,33.0,0.0,211970.0
22200.210693359375,1086.0,35.0,-1.0,211969.0
22213.551513671875,1087.0,36.0,-2.0,211968.0
22226.892578125,1088.0,35.0,-3.0,211967.0
22240.2333984375,1089.0,33.0,-3.0,211967.0
22253.57421875,1090.0,30.0,-2.0,211968.0
22266.9150390625,1091.0,29.0,-2.0,211968.0
22280.256103515625,1092.0,29.0,-2.0,211968.0
22293.596923828125,1093.0,31.0,-1.0,211969.0
22306.937744140625,1094.0,32.0,-3.0,211967.0
22320.27880859375,1095.0,26.0,-8.0,211962.0
22333.61962890625,1096.0,17.0,-13.0,211957.0
22346.96044921875,1097.0,7.0,-19.0,211951.0
22360.301513671875,1098.0,-3.0,-24.0,211946.0
22373.642333984375,1099.0,-13.0,-30.0,211940.0
22386.983154296875,1100.0,-19.0,-34.0,211936.0
22400.323974609375,1101.0,-21.0,-38.0,211932.0
22413.6650390625,1102.0,-19.0,-39.0,211931.0
22427.005859375,1103.0,-16.0,-38.0,211932.0
22440.3466796875,1104.0,-12.0,-35.0,211935.0
22453.687744140625,1105.0,-8.0,-30.0,211940.0
22467.028564453125,1106.0,-3.0,-27.0,211943.0
22480.369384765625,1107.0,1.0,-23.0,211947.0
22493.71044921875,1108.0,6.0,-18.0,211952.0
22507.05126953125,1109.0,12.0,-15.0,211955.0
22520.39208984375,1110.0,17.0,-13.0,211957.0
22533.73291015625,1111.0,23.0,-10.0,211960.0
22547.073974609375,1112.0,28.0,-7.0,211963.0
22560.414794921875,1113.0,29.0,-3.0,211967.0
22573.755615234375,1114.0,28.0,0.0,211970.0
22587.0966796875,1115.0,24.0,0.0,211970.0
22600.4375,1116.0,20.0,-2.0,211968.0
22613.7783203125,1117.0,16.0,-5.0,211965.0
22627.119384765625,1118.0,14.0,-8.0,211962.0
22640.460205078125,1119.0,13.0,-12.0,211958.0
22653.801025390625,1120.0,14.0,-15.0,211955.0
22667.14208984375,1121.0,13.0,-17.0,211953.0
22680.48291015625,1122.0,14.0,-19.0,211951.0
22693.82373046875,1123.0,16.0,-20.0,211950.0
22707.16455078125,1124.0,17.0,-21.0,211949.0
22720.505615234375,1125.0,18.0,-19.0,211951.0
22733.846435546875,1126.0,20.0,-16.0,211954.0
22747.187255859375,1127.0,22.0,-14.0,211956.0
22760.5283203125,1128.0,25.0,-10.0,211960.0
22773.869140625,1129.0,27.0,-7.0,211963.0
22787.2099609375,1130.0,27.0,-4.0,211966.0
22800.551025390625,1131.0,26.0,-3.0,211967.0
22813.891845703125,1132.0,26.0,-2.0,211968.0
22827.232666015625,1133.0,25.0,-1.0,211969.0
22840.573486328125,1134.0,24.0,0.0,211970.0
22853.91455078125,1135.0,24.0,0.0,211970.0
22867.25537109375,1136.0,24.0,0.0,211970.0
22880.59619140625,1137.0,23.0,0.0,211970.0
22893.937255859375,1138.0,23.0,0.0,211970.0
22907.278076171875,1139.0,23.0,-1.0,211969.0
22920.618896484375,1140.0,22.0,-2.0,211968.0
22933.9599609375,1141.0,20.0,-2.0,211968.0
22947.30078125,1142.0,20.0,-1.0,211969.0
22960.6416015625,1143.0,19.0,0.0,211970.0
22973.982421875,1144.0,20.0,2.0,211972.0
22987.323486328125,1145.0,19.0,4.0,211974.0
23000.664306640625,1146.0,17.0,5.0,211975.0
23014.005126953125,1147.0,9.0,3.0,211973.0
23027.34619140625,1148.0,-3.0,-4.0,211966.0
23040.68701171875,1149.0,-18.0,-14.0,211956.0
23054.02783203125,1150.0,-33.0,-24.0,211946.0
23067.368896484375,1151.0,-44.0,-31.0,211939.0
23080.709716796875,1152.0,-53.0,-36.0,211934.0
23094.050537109375,1153.0,-57.0,-40.0,211930.0
23107.391357421875,1154.0,-58.0,-40.0,211930.0
23120.732421875,1155.0,-56.0,-39.0,211931.0
23134.0732421875,1156.0,-52.0,-35.0,211935.0
23147.4140625,1157.0,-46.0,-30.0,211940.0
23160.755126953125,1158.0,-37.0,-26.0,211944.0
23174.095947265625,1159.0,-29.0,-21.0,211949.0
23187.436767578125,1160.0,-20.0,-18.0,211952.0
23200.77783203125,1161.0,-13.0,-14.0,211956.0
23214.11865234375,1162.0,-7.0,-10.0,211960.0
23227.45947265625,1163.0,-2.0,-5.0,211965.0
23240.80029296875,1164.0,2.0,-1.0,211969.0
23254.141357421875,1165.0,6.0,2.0,211972.0
23267.482177734375,1166.0,10.0,4.0,211974.0
23280.822998046875,1167.0,12.0,5.0,211975.0
23294.1640625,1168.0,12.0,5.0,211975.0
23307.5048828125,1169.0,11.0,5.0,211975.0
23320.845703125,1170.0,8.0,5.0,211975.0
23334.186767578125,1171.0,5.0,5.0,211975.0
23347.527587890625,1172.0,1.0,4.0,211974.0
23360.868408203125,1173.0,0.0,4.0,211974.0
23374.209228515625,1174.0,-1.0,5.0,211975.0
23387.55029296875,1175.0,0.0,7.0,211977.0
23400.89111328125,1176.0,3.0,9.0,211979.0
23414.23193359375,1177.0,6.0,10.0,211980.0
23427.572998046875,1178.0,10.0,10.0,211980.0
23440.913818359375,1179.0,16.0,8.0,211978.0
23454.254638671875,1180.0,21.0,6.0,211976.0
23467.595703125,1181.0,25.0,6.0,211976.0
23480.9365234375,1182.0,28.0,5.0,211975.0
23494.27734375,1183.0,32.0,5.0,211975.0
23507.6181640625,1184.0,35.0,6.0,211976.0
23520.959228515625,1185.0,37.0,8.0,211978.0
23534.300048828125,1186.0,36.0,9.0,211979.0
23547.640869140625,1187.0,35.0,7.0,211977.0
23560.98193359375,1188.0,32.0,4.0,211974.0
23574.32275390625,1189.0,29.0,2.0,211972.0
23587.66357421875,1190.0,27.0,-2.0,211968.0
23601.004638671875,1191.0,24.0,-4.0,211966.0
23614.345458984375,1192.0,21.0,-4.0,211966.0
23627.686279296875,1193.0,19.0,-2.0,211968.0
23641.027099609375,1194.0,17.0,1.0,211971.0
23654.3681640625,1195.0,17.0,1.0,211971.0
23667.708984375,1196.0,19.0,0.0,211970.0
23681.0498046875,1197.0,22.0,-2.0,211968.0
23694.390869140625,1198.0,25.0,-3.0,211967.0
23707.731689453125,1199.0,25.0,-5.0,211965.0
23721.072509765625,1200.0,23.0,-7.0,211963.0
23734.41357421875,1201.0,17.0,-13.0,211957.0
23747.75439453125,1202.0,6.0,-20.0,211950.0
23761.09521484375,1203.0,-8.0,-28.0,211942.0
23774.43603515625,1204.0,-21.0,-35.0,211935.0
23787.777099609375,1205.0,-31.0,-40.0,211930.0
23801.117919921875,1206.0,-37.0,-44.0,211926.0
23814.458740234375,1207.0,-39.0,-44.0,211926.0
23827.7998046875,1208.0,-37.0,-42.0,211928.0
23841.140625,1209.0,-32.0,-37.0,211933.0
23854.4814453125,1210.0,-26.0,-33.0,211937.0
23867.822509765625,1211.0,-20.0,-29.0,211941.0
23881.163330078125,1212.0,-15.0,-25.0,211945.0
23894.504150390625,1213.0,-11.0,-21.0,211949.0
23907.84521484375,1214.0,-7.0,-17.0,211953.0
23921.18603515625,1215.0,0.0,-14.0,211956.0
23934.52685546875,1216.0,8.0,-11.0,211959.0
23947.86767578125,1217.0,15.0,-9.0,211961.0
23961.208740234375,1218.0,19.0,-8.0,211962.0
23974.549560546875,1219.0,22.0,-8.0,211962.0
23987.890380859375,1220.0,23.0,-10.0,211960.0
24001.2314453125,1221.0,23.0,-13.0,211957.0
24014.572265625,1222.0,20.0,-18.0,211952.0
24027.9130859375,1223.0,15.0,-21.0,211949.0
24041.254150390625,1224.0,8.0,-24.0,211946.0
24054.594970703125,1225.0,3.0,-23.0,211947.0
24067.935791015625,1226.0,1.0,-22.0,211948.0
24081.276611328125,1227.0,0.0,-18.0,211952.0
24094.61767578125,1228.0,0.0,-13.0,211957.0
24107.95849609375,1229.0,1.0,-8.0,211962.0
24121.29931640625,1230.0,4.0,-5.0,211965.0
24134.640380859375,1231.0,7.0,-2.0,211968.0
24147.981201171875,1232.0,9.0,1.0,211971.0
24161.322021484375,1233.0,11.0,4.0,211974.0
24174.6630859375,1234.0,12.0,7.0,211977.0
24188.00390625,1235.0,13.0,9.0,211979.0
24201.3447265625,1236.0,13.0,9.0,211979.0
24214.685546875,1237.0,13.0,9.0,211979.0
24228.026611328125,1238.0,13.0,8.0,211978.0
24241.367431640625,1239.0,12.0,6.0,211976.0
24254.708251953125,1240.0,9.0,2.0,211972.0
24268.04931640625,1241.0,7.0,-2.0,211968.0
24281.39013671875,1242.0,5.0,-5.0,211965.0
24294.73095703125,1243.0,4.0,-6.0,211964.0
24308.072021484375,1244.0,4.0,-5.0,211965.0
24321.412841796875,1245.0,5.0,-3.0,211967.0
24334.753662109375,1246.0,7.0,-1.0,211969.0
24348.094482421875,1247.0,9.0,3.0,211973.0
24361.435546875,1248.0,11.0,6.0,211976.0
24374.7763671875,1249.0,13.0,8.0,211978.0
24388.1171875,1250.0,15.0,11.0,211981.0
24401.458251953125,1251.0,16.0,12.0,211982.0
24414.799072265625,1252.0,16.0,12.0,211982.0
24428.139892578125,1253.0,15.0,12.0,211982.0
24441.48095703125,1254.0,15.0,13.0,211983.0
24454.82177734375,1255.0,13.0,13.0,211983.0
24468.16259765625,1256.0,10.0,13.0,211983.0
24481.50341796875,1257.0,5.0,9.0,211979.0
24494.844482421875,1258.0,-2.0,2.0,211972.0
24508.185302734375,1259.0,-11.0,-8.0,211962.0
24521.526123046875,1260.0,-20.0,-18.0,211952.0
24534.8671875,1261.0,-28.0,-28.0,211942.0
24548.2080078125,1262.0,-34.0,-37.0,211933.0
24561.548828125,1263.0,-40.0,-43.0,211927.0
24574.889892578125,1264.0,-42.0,-46.0,211924.0
24588.230712890625,1265.0,-43.0,-44.0,211926.0
24601.571533203125,1266.0,-41.0,-38.0,211932.0
24614.912353515625,1267.0,-40.0,-28.0,211942.0
24628.25341796875,1268.0,-36.0,-20.0,211950.0
24641.59423828125,1269.0,-31.0,-14.0,211956.0
24654.93505859375,1270.0,-25.0,-9.0,211961.0
24668.276123046875,1271.0,-19.0,-8.0,211962.0
24681.616943359375,1272.0,-13.0,-6.0,211964.0
24694.957763671875,1273.0,-9.0,-4.0,211966.0
24708.298828125,1274.0,-8.0,1.0,211971.0
24721.6396484375,1275.0,-7.0,4.0,211974.0
24734.98046875,1276.0,-5.0,5.0,211975.0
24748.3212890625,1277.0,-5.0,4.0,211974.0
24761.662353515625,1278.0,-7.0,0.0,211970.0
24775.003173828125,1279.0,-8.0,-6.0,211964.0
24788.343994140625,1280.0,-11.0,-12.0,211958.0
24801.68505859375,1281.0,-14.0,-15.0,211955.0
24815.02587890625,1282.0,-17.0,-15.0,211955.0
24828.36669921875,1283.0,-20.0,-14.0,211956.0
24841.707763671875,1284.0,-23.0,-14.0,211956.0
24855.048583984375,1285.0,-25.0,-14.0,211956.0
24868.389404296875,1286.0,-28.0,-16.0,211954.0
24881.730224609375,1287.0,-27.0,-18.0,211952.0
24895.0712890625,1288.0,-23.0,-19.0,211951.0
24908.412109375,1289.0,-19.0,-19.0,211951.0
24921.7529296875,1290.0,-15.0,-16.0,211954.0
24935.093994140625,1291.0,-9.0,-12.0,211958.0
24948.434814453125,1292.0,-4.0,-6.0,211964.0
24961.775634765625,1293.0,0.0,-2.0,211968.0
24975.11669921875,1294.0,2.0,-1.0,211969.0
24988.45751953125,1295.0,3.0,-2.0,211968.0
25001.79833984375,1296.0,2.0,-3.0,211967.0
25015.13916015625,1297.0,-1.0,-4.0,211966.0
25028.480224609375,1298.0,-3.0,-3.0,211967.0
25041.821044921875,1299.0,-3.0,-1.0,211969.0
25055.161865234375,1300.0,-3.0,0.0,211970.0
25068.5029296875,1301.0,0.0,0.0,211970.0
25081.84375,1302.0,3.0,0.0,211970.0
25095.1845703125,1303.0,5.0,-1.0,211969.0
25108.525634765625,1304.0,6.0,-2.0,211968.0
25121.866455078125,1305.0,8.0,-3.0,211967.0
25135.207275390625,1306.0,10.0,-2.0,211968.0
25148.54833984375,1307.0,11.0,0.0,211970.0
25161.88916015625,1308.0,13.0,3.0,211973.0
25175.22998046875,1309.0,15.0,7.0,211977.0
25188.57080078125,1310.0,19.0,12.0,211982.0
25201.911865234375,1311.0,23.0,17.0,211987.0
25215.252685546875,1312.0,25.0,20.0,211990.0
25228.593505859375,1313.0,22.0,19.0,211989.0
25241.9345703125,1314.0,14.0,13.0,211983.0
25255.275390625,1315.0,2.0,2.0,211972.0
25268.6162109375,1316.0,-11.0,-10.0,211960.0
25281.957275390625,1317.0,-25.0,-21.0,211949.0
25295.298095703125,1318.0,-38.0,-26.0,211944.0
25308.638916015625,1319.0,-48.0,-29.0,211941.0
25321.979736328125,1320.0,-54.0,-29.0,211941.0
25335.32080078125,1321.0,-57.0,-27.0,211943.0
25348.66162109375,1322.0,-57.0,-25.0,211945.0
25362.00244140625,1323.0,-53.0,-23.0,211947.0
25375.343505859375,1324.0,-45.0,-20.0,211950.0
25388.684326171875,1325.0,-37.0,-19.0,211951.0
25402.025146484375,1326.0,-28.0,-17.0,211953.0
25415.3662109375,1327.0,-20.0,-14.0,211956.0
25428.70703125,1328.0,-12.0,-11.0,211959.0
25442.0478515625,1329.0,-6.0,-8.0,211962.0
25455.388671875,1330.0,-2.0,-5.0,211965.0
25468.729736328125,1331.0,-1.0,-2.0,211968.0
25482.070556640625,1332.0,-3.0,0.0,211970.0
25495.411376953125,1333.0,-6.0,2.0,211972.0
25508.75244140625,1334.0,-10.0,4.0,211974.0
25522.09326171875,1335.0,-14.0,4.0,211974.0
25535.43408203125,1336.0,-18.0,2.0,211972.0
25548.775146484375,1337.0,-22.0,-2.0,211968.0
25562.115966796875,1338.0,-25.0,-6.0,211964.0
25575.456787109375,1339.0,-26.0,-10.0,211960.0
25588.797607421875,1340.0,-26.0,-11.0,211959.0
25602.138671875,1341.0,-25.0,-11.0,211959.0
25615.4794921875,1342.0,-22.0,-9.0,211961.0
25628.8203125,1343.0,-19.0,-6.0,211964.0
25642.161376953125,1344.0,-15.0,-2.0,211968.0
25655.502197265625,1345.0,-11.0,0.0,211970.0
25668.843017578125,1346.0,-8.0,1.0,211971.0
25682.18408203125,1347.0,-6.0,0.0,211970.0
25695.52490234375,1348.0,-3.0,-1.0,211969.0
25708.86572265625,1349.0,-5.0,0.0,211970.0
25722.20654296875,1350.0,-7.0,1.0,211971.0
25735.547607421875,1351.0,-10.0,4.0,211974.0
25748.888427734375,1352.0,-11.0,7.0,211977.0
25762.229248046875,1353.0,-12.0,10.0,211980.0
25775.5703125,1354.0,-11.0,11.0,211981.0
25788.9111328125,1355.0,-8.0,11.0,211981.0
25802.251953125,1356.0,-5.0,10.0,211980.0
25815.593017578125,1357.0,-4.0,7.0,211977.0
25828.933837890625,1358.0,-3.0,4.0,211974.0
25842.274658203125,1359.0,-2.0,1.0,211971.0
25855.615478515625,1360.0,-2.0,1.0,211971.0
25868.95654296875,1361.0,-4.0,2.0,211972.0
25882.29736328125,1362.0,-6.0,3.0,211973.0
25895.63818359375,1363.0,-7.0,3.0,211973.0
25908.979248046875,1364.0,-9.0,4.0,211974.0
25922.320068359375,1365.0,-10.0,6.0,211976.0
25935.660888671875,1366.0,-12.0,9.0,211979.0
25949.001953125,1367.0,-13.0,11.0,211981.0
25962.3427734375,1368.0,-16.0,11.0,211981.0
25975.68359375,1369.0,-21.0,8.0,211978.0
25989.0244140625,1370.0,-30.0,2.0,211972.0
26002.365478515625,1371.0,-40.0,-7.0,211963.0
26015.706298828125,1372.0,-47.0,-17.0,211953.0
26029.047119140625,1373.0,-53.0,-24.0,211946.0
26042.38818359375,1374.0,-54.0,-26.0,211944.0
26055.72900390625,1375.0,-52.0,-25.0,211945.0
26069.06982421875,1376.0,-46.0,-22.0,211948.0
26082.410888671875,1377.0,-38.0,-17.0,211953.0
26095.751708984375,1378.0,-31.0,-14.0,211956.0
26109.092529296875,1379.0,-24.0,-11.0,211959.0
26122.433349609375,1380.0,-16.0,-9.0,211961.0
26135.7744140625,1381.0,-11.0,-7.0,211963.0
26149.115234375,1382.0,-7.0,-3.0,211967.0
26162.4560546875,1383.0,-3.0,2.0,211972.0
26175.797119140625,1384.0,1.0,6.0,211976.0
26189.137939453125,1385.0,5.0,10.0,211980.0
26202.478759765625,1386.0,8.0,14.0,211984.0
26215.81982421875,1387.0,8.0,16.0,211986.0
26229.16064453125,1388.0,5.0,15.0,211985.0
26242.50146484375,1389.0,0.0,13.0,211983.0
26255.84228515625,1390.0,-5.0,10.0,211980.0
26269.183349609375,1391.0,-9.0,10.0,211980.0
26282.524169921875,1392.0,-12.0,12.0,211982.0
26295.864990234375,1393.0,-14.0,14.0,211984.0
26309.2060546875,1394.0,-16.0,17.0,211987.0
26322.546875,1395.0,-15.0,19.0,211989.0
26335.8876953125,1396.0,-13.0,20.0,211990.0
26349.228759765625,1397.0,-11.0,21.0,211991.0
26362.569580078125,1398.0,-9.0,22.0,211992.0
26375.910400390625,1399.0,-7.0,22.0,211992.0
26389.25146484375,1400.0,-4.0,20.0,211990.0
26402.59228515625,1401.0,1.0,19.0,211989.0
26415.93310546875,1402.0,5.0,18.0,211988.0
26429.27392578125,1403.0,7.0,16.0,211986.0
26442.614990234375,1404.0,9.0,14.0,211984.0
26455.955810546875,1405.0,10.0,10.0,211980.0
26469.296630859375,1406.0,11.0,7.0,211977.0
26482.6376953125,1407.0,13.0,7.0,211977.0
26495.978515625,1408.0,18.0,9.0,211979.0
26509.3193359375,1409.0,21.0,12.0,211982.0
26522.660400390625,1410.0,23.0,14.0,211984.0
26536.001220703125,1411.0,24.0,17.0,211987.0
26549.342041015625,1412.0,24.0,18.0,211988.0
26562.682861328125,1413.0,22.0,17.0,211987.0
26576.02392578125,1414.0,20.0,15.0,211985.0
26589.36474609375,1415.0,19.0,14.0,211984.0
26602.70556640625,1416.0,19.0,12.0,211982.0
26616.046630859375,1417.0,18.0,12.0,211982.0
26629.387451171875,1418.0,19.0,11.0,211981.0
26642.728271484375,1419.0,21.0,11.0,211981.0
26656.0693359375,1420.0,22.0,7.0,211977.0
26669.41015625,1421.0,18.0,5.0,211975.0
26682.7509765625,1422.0,8.0,0.0,211970.0
26696.091796875,1423.0,-2.0,-6.0,211964.0
26709.432861328125,1424.0,-13.0,-14.0,211956.0
26722.773681640625,1425.0,-21.0,-19.0,211951.0
26736.114501953125,1426.0,-24.0,-22.0,211948.0
26749.45556640625,1427.0,-25.0,-24.0,211946.0
26762.79638671875,1428.0,-24.0,-24.0,211946.0
26776.13720703125,1429.0,-22.0,-20.0,211950.0
26789.478271484375,1430.0,-20.0,-18.0,211952.0
26802.819091796875,1431.0,-18.0,-15.0,211955.0
26816.159912109375,1432.0,-16.0,-11.0,211959.0
26829.500732421875,1433.0,-13.0,-6.0,211964.0
26842.841796875,1434.0,-9.0,-1.0,211969.0
26856.1826171875,1435.0,-5.0,4.0,211974.0
26869.5234375,1436.0,-2.0,8.0,211978.0
26882.864501953125,1437.0,1.0,12.0,211982.0
26896.205322265625,1438.0,5.0,15.0,211985.0
26909.546142578125,1439.0,8.0,17.0,211987.0
26922.88720703125,1440.0,9.0,18.0,211988.0
26936.22802734375,1441.0,8.0,16.0,211986.0
26949.56884765625,1442.0,2.0,11.0,211981.0
26962.90966796875,1443.0,-5.0,7.0,211977.0
26976.250732421875,1444.0,-11.0,4.0,211974.0
26989.591552734375,1445.0,-14.0,0.0,211970.0
27002.932373046875,1446.0,-13.0,-4.0,211966.0
27016.2734375,1447.0,-11.0,-6.0,211964.0
27029.6142578125,1448.0,-8.0,-5.0,211965.0
27042.955078125,1449.0,-4.0,-1.0,211969.0
27056.296142578125,1450.0,1.0,4.0,211974.0
27069.636962890625,1451.0,7.0,9.0,211979.0
27082.977783203125,1452.0,11.0,12.0,211982.0
27096.318603515625,1453.0,14.0,13.0,211983.0
27109.65966796875,1454.0,15.0,13.0,211983.0
27123.00048828125,1455.0,15.0,12.0,211982.0
27136.34130859375,1456.0,14.0,10.0,211980.0
27149.682373046875,1457.0,11.0,10.0,211980.0
27163.023193359375,1458.0,11.0,10.0,211980.0
27176.364013671875,1459.0,13.0,12.0,211982.0
27189.705078125,1460.0,14.0,13.0,211983.0
27203.0458984375,1461.0,14.0,12.0,211982.0
27216.38671875,1462.0,15.0,9.0,211979.0
27229.7275390625,1463.0,18.0,6.0,211976.0
27243.068603515625,1464.0,20.0,4.0,211974.0
27256.409423828125,1465.0,23.0,1.0,211971.0
27269.750244140625,1466.0,24.0,0.0,211970.0
27283.09130859375,1467.0,25.0,-1.0,211969.0
27296.43212890625,1468.0,24.0,-1.0,211969.0
27309.77294921875,1469.0,23.0,0.0,211970.0
27323.114013671875,1470.0,18.0,-1.0,211969.0
27336.454833984375,1471.0,7.0,-6.0,211964.0
27349.795654296875,1472.0,-8.0,-13.0,211957.0
27363.136474609375,1473.0,-20.0,-23.0,211947.0
27376.4775390625,1474.0,-32.0,-32.0,211938.0
27389.818359375,1475.0,-39.0,-38.0,211932.0
27403.1591796875,1476.0,-42.0,-42.0,211928.0
27416.500244140625,1477.0,-43.0,-42.0,211928.0
27429.841064453125,1478.0,-44.0,-41.0,211929.0
27443.181884765625,1479.0,-45.0,-38.0,211932.0
27456.52294921875,1480.0,-42.0,-36.0,211934.0
27469.86376953125,1481.0,-39.0,-34.0,211936.0
27483.20458984375,1482.0,-34.0,-30.0,211940.0
27496.54541015625,1483.0,-28.0,-24.0,211946.0
27509.886474609375,1484.0,-21.0,-17.0,211953.0
27523.227294921875,1485.0,-12.0,-12.0,211958.0
27536.568115234375,1486.0,-6.0,-6.0,211964.0
27549.9091796875,1487.0,-3.0,0.0,211970.0
27563.25,1488.0,1.0,4.0,211974.0
27576.5908203125,1489.0,3.0,5.0,211975.0
27589.931884765625,1490.0,4.0,5.0,211975.0
27603.272705078125,1491.0,3.0,4.0,211974.0
27616.613525390625,1492.0,0.0,3.0,211973.0
27629.95458984375,1493.0,-3.0,-1.0,211969.0
27643.29541015625,1494.0,-7.0,-5.0,211965.0
27656.63623046875,1495.0,-9.0,-10.0,211960.0
27669.97705078125,1496.0,-10.0,-12.0,211958.0
27683.318115234375,1497.0,-10.0,-13.0,211957.0
27696.658935546875,1498.0,-11.0,-13.0,211957.0
27709.999755859375,1499.0,-11.0,-12.0,211958.0
27723.3408203125,1500.0,-11.0,-11.0,211959.0
27736.681640625,1501.0,-11.0,-9.0,211961.0
27750.0224609375,1502.0,-12.0,-6.0,211964.0
27763.363525390625,1503.0,-12.0,-2.0,211968.0
27776.704345703125,1504.0,-10.0,0.0,211970.0
27790.045166015625,1505.0,-7.0,1.0,211971.0
27803.385986328125,1506.0,-4.0,2.0,211972.0
27816.72705078125,1507.0,0.0,2.0,211972.0
27830.06787109375,1508.0,3.0,2.0,211972.0
27843.40869140625,1509.0,5.0,1.0,211971.0
27856.749755859375,1510.0,3.0,0.0,211970.0
27870.090576171875,1511.0,1.0,-1.0,211969.0
27883.431396484375,1512.0,-1.0,-2.0,211968.0
27896.7724609375,1513.0,-3.0,-3.0,211967.0
27910.11328125,1514.0,-6.0,-3.0,211967.0
27923.4541015625,1515.0,-7.0,-2.0,211968.0
27936.794921875,1516.0,-6.0,-1.0,211969.0
27950.135986328125,1517.0,-5.0,0.0,211970.0
27963.476806640625,1518.0,-6.0,-2.0,211968.0
27976.817626953125,1519.0,-12.0,-9.0,211961.0
27990.15869140625,1520.0,-20.0,-19.0,211951.0
28003.49951171875,1521.0,-31.0,-29.0,211941.0
28016.84033203125,1522.0,-42.0,-35.0,211935.0
28030.181396484375,1523.0,-49.0,-41.0,211929.0
28043.522216796875,1524.0,-54.0,-44.0,211926.0
28056.863037109375,1525.0,-57.0,-45.0,211925.0
28070.203857421875,1526.0,-57.0,-42.0,211928.0
28083.544921875,1527.0,-54.0,-38.0,211932.0
28096.8857421875,1528.0,-49.0,-31.0,211939.0
28110.2265625,1529.0,-41.0,-24.0,211946.0
28123.567626953125,1530.0,-33.0,-17.0,211953.0
28136.908447265625,1531.0,-24.0,-8.0,211962.0
28150.249267578125,1532.0,-15.0,-3.0,211967.0
28163.59033203125,1533.0,-7.0,1.0,211971.0
28176.93115234375,1534.0,-1.0,4.0,211974.0
28190.27197265625,1535.0,1.0,5.0,211975.0
28203.61279296875,1536.0,1.0,5.0,211975.0
28216.953857421875,1537.0,-1.0,3.0,211973.0
28230.294677734375,1538.0,-5.0,2.0,211972.0
28243.635498046875,1539.0,-10.0,0.0,211970.0
28256.9765625,1540.0,-17.0,-2.0,211968.0
28270.3173828125,1541.0,-23.0,-2.0,211968.0
28283.658203125,1542.0,-30.0,-4.0,211966.0
28296.999267578125,1543.0,-36.0,-5.0,211965.0
28310.340087890625,1544.0,-38.0,-7.0,211963.0
28323.680908203125,1545.0,-38.0,-9.0,211961.0
28337.021728515625,1546.0,-36.0,-10.0,211960.0
28350.36279296875,1547.0,-35.0,-11.0,211959.0
28363.70361328125,1548.0,-33.0,-10.0,211960.0
28377.04443359375,1549.0,-29.0,-8.0,211962.0
28390.385498046875,1550.0,-26.0,-5.0,211965.0
28403.726318359375,1551.0,-23.0,-2.0,211968.0
28417.067138671875,1552.0,-20.0,0.0,211970.0
28430.408203125,1553.0,-16.0,3.0,211973.0
28443.7490234375,1554.0,-12.0,6.0,211976.0
28457.08984375,1555.0,-8.0,7.0,211977.0
28470.4306640625,1556.0,-4.0,8.0,211978.0
28483.771728515625,1557.0,2.0,10.0,211980.0
28497.112548828125,1558.0,10.0,12.0,211982.0
28510.453369140625,1559.0,16.0,15.0,211985.0
28523.79443359375,1560.0,20.0,17.0,211987.0
28537.13525390625,1561.0,22.0,18.0,211988.0
28550.47607421875,1562.0,24.0,17.0,211987.0
28563.817138671875,1563.0,24.0,16.0,211986.0
28577.157958984375,1564.0,24.0,15.0,211985.0
28590.498779296875,1565.0,23.0,14.0,211984.0
28603.839599609375,1566.0,20.0,12.0,211982.0
28617.1806640625,1567.0,13.0,8.0,211978.0
28630.521484375,1568.0,4.0,1.0,211971.0
28643.8623046875,1569.0,-8.0,-9.0,211961.0
28657.203369140625,1570.0,-22.0,-18.0,211952.0
28670.544189453125,1571.0,-34.0,-26.0,211944.0
28683.885009765625,1572.0,-40.0,-29.0,211941.0
28697.22607421875,1573.0,-43.0,-31.0,211939.0
28710.56689453125,1574.0,-40.0,-28.0,211942.0
28723.90771484375,1575.0,-34.0,-26.0,211944.0
28737.24853515625,1576.0,-27.0,-23.0,211947.0
28750.589599609375,1577.0,-21.0,-17.0,211953.0
28763.930419921875,1578.0,-15.0,-14.0,211956.0
28777.271240234375,1579.0,-8.0,-11.0,211959.0
28790.6123046875,1580.0,0.0,-9.0,211961.0
28803.953125,1581.0,6.0,-7.0,211963.0
28817.2939453125,1582.0,11.0,-5.0,211965.0
28830.635009765625,1583.0,14.0,-3.0,211967.0
28843.975830078125,1584.0,17.0,-1.0,211969.0
28857.316650390625,1585.0,19.0,0.0,211970.0
28870.65771484375,1586.0,18.0,-1.0,211969.0
28883.99853515625,1587.0,13.0,-3.0,211967.0
28897.33935546875,1588.0,5.0,-8.0,211962.0
28910.68017578125,1589.0,-3.0,-13.0,211957.0
28924.021240234375,1590.0,-9.0,-15.0,211955.0
28937.362060546875,1591.0,-12.0,-15.0,211955.0
28950.702880859375,1592.0,-15.0,-15.0,211955.0
28964.0439453125,1593.0,-15.0,-15.0,211955.0
28977.384765625,1594.0,-13.0,-14.0,211956.0
28990.7255859375,1595.0,-11.0,-12.0,211958.0
29004.066650390625,1596.0,-8.0,-9.0,211961.0
29017.407470703125,1597.0,-5.0,-6.0,211964.0
29030.748291015625,1598.0,-1.0,-1.0,211969.0
29044.089111328125,1599.0,1.0,4.0,211974.0
29057.43017578125,1600.0,3.0,7.0,211977.0
29070.77099609375,1601.0,3.0,8.0,211978.0
29084.11181640625,1602.0,2.0,9.0,211979.0
29097.452880859375,1603.0,-2.0,11.0,211981.0
29110.793701171875,1604.0,-4.0,12.0,211982.0
29124.134521484375,1605.0,-6.0,13.0,211983.0
29137.4755859375,1606.0,-8.0,12.0,211982.0
29150.81640625,1607.0,-9.0,11.0,211981.0
29164.1572265625,1608.0,-8.0,9.0,211979.0
29177.498046875,1609.0,-6.0,7.0,211977.0
29190.839111328125,1610.0,-4.0,7.0,211977.0
29204.179931640625,1611.0,-1.0,9.0,211979.0
29217.520751953125,1612.0,2.0,12.0,211982.0
29230.86181640625,1613.0,5.0,16.0,211986.0
29244.20263671875,1614.0,7.0,19.0,211989.0
29257.54345703125,1615.0,7.0,21.0,211991.0
29270.884521484375,1616.0,4.0,20.0,211990.0
29284.225341796875,1617.0,-4.0,15.0,211985.0
29297.566162109375,1618.0,-15.0,6.0,211976.0
29310.906982421875,1619.0,-28.0,-5.0,211965.0
29324.248046875,1620.0,-39.0,-16.0,211954.0
29337.5888671875,1621.0,-44.0,-23.0,211947.0
29350.9296875,1622.0,-46.0,-26.0,211944.0
29364.270751953125,1623.0,-44.0,-25.0,211945.0
29377.611572265625,1624.0,-41.0,-21.0,211949.0
29390.952392578125,1625.0,-35.0,-17.0,211953.0
29404.29345703125,1626.0,-30.0,-11.0,211959.0
29417.63427734375,1627.0,-24.0,-3.0,211967.0
29430.97509765625,1628.0,-18.0,6.0,211976.0
29444.31591796875,1629.0,-12.0,12.0,211982.0
29457.656982421875,1630.0,-8.0,17.0,211987.0
29470.997802734375,1631.0,-7.0,21.0,211991.0
29484.338623046875,1632.0,-4.0,22.0,211992.0
29497.6796875,1633.0,-3.0,20.0,211990.0
29511.0205078125,1634.0,-3.0,17.0,211987.0
29524.361328125,1635.0,-7.0,14.0,211984.0
29537.702392578125,1636.0,-10.0,11.0,211981.0
29551.043212890625,1637.0,-14.0,7.0,211977.0
29564.384033203125,1638.0,-18.0,4.0,211974.0
29577.724853515625,1639.0,-23.0,1.0,211971.0
29591.06591796875,1640.0,-27.0,-3.0,211967.0
29604.40673828125,1641.0,-31.0,-8.0,211962.0
29617.74755859375,1642.0,-32.0,-12.0,211958.0
29631.088623046875,1643.0,-32.0,-13.0,211957.0
29644.429443359375,1644.0,-29.0,-13.0,211957.0
29657.770263671875,1645.0,-24.0,-11.0,211959.0
29671.111328125,1646.0,-17.0,-8.0,211962.0
29684.4521484375,1647.0,-13.0,-5.0,211965.0
29697.79296875,1648.0,-11.0,-4.0,211966.0
29711.1337890625,1649.0,-10.0,-2.0,211968.0
29724.474853515625,1650.0,-10.0,-2.0,211968.0
29737.815673828125,1651.0,-10.0,-1.0,211969.0
29751.156494140625,1652.0,-10.0,0.0,211970.0
29764.49755859375,1653.0,-9.0,3.0,211973.0
29777.83837890625,1654.0,-9.0,5.0,211975.0
29791.17919921875,1655.0,-9.0,8.0,211978.0
29804.520263671875,1656.0,-11.0,9.0,211979.0
29817.861083984375,1657.0,-10.0,11.0,211981.0
29831.201904296875,1658.0,-7.0,14.0,211984.0
29844.542724609375,1659.0,-3.0,18.0,211988.0
29857.8837890625,1660.0,2.0,22.0,211992.0
29871.224609375,1661.0,8.0,26.0,211996.0
29884.5654296875,1662.0,13.0,27.0,211997.0
29897.906494140625,1663.0,16.0,26.0,211996.0
29911.247314453125,1664.0,16.0,23.0,211993.0
29924.588134765625,1665.0,16.0,18.0,211988.0
29937.92919921875,1666.0,13.0,11.0,211981.0
29951.27001953125,1667.0,4.0,4.0,211974.0
29964.61083984375,1668.0,-7.0,-4.0,211966.0
29977.95166015625,1669.0,-19.0,-12.0,211958.0
29991.292724609375,1670.0,-29.0,-18.0,211952.0
30004.633544921875,1671.0,-37.0,-21.0,211949.0
30017.974365234375,1672.0,-42.0,-20.0,211950.0
30031.3154296875,1673.0,-43.0,-18.0,211952.0
30044.65625,1674.0,-41.0,-15.0,211955.0
30057.9970703125,1675.0,-36.0,-12.0,211958.0
30071.338134765625,1676.0,-32.0,-9.0,211961.0
30084.678955078125,1677.0,-27.0,-7.0,211963.0
30098.019775390625,1678.0,-24.0,-4.0,211966.0
30111.36083984375,1679.0,-21.0,-1.0,211969.0
30124.70166015625,1680.0,-17.0,2.0,211972.0
30138.04248046875,1681.0,-12.0,5.0,211975.0
30151.38330078125,1682.0,-9.0,6.0,211976.0
30164.724365234375,1683.0,-8.0,6.0,211976.0
30178.065185546875,1684.0,-8.0,5.0,211975.0
30191.406005859375,1685.0,-8.0,4.0,211974.0
30204.7470703125,1686.0,-10.0,1.0,211971.0
30218.087890625,1687.0,-13.0,-1.0,211969.0
30231.4287109375,1688.0,-17.0,-3.0,211967.0
30244.769775390625,1689.0,-22.0,-5.0,211965.0
30258.110595703125,1690.0,-27.0,-8.0,211962.0
30271.451416015625,1691.0,-32.0,-11.0,211959.0
30284.792236328125,1692.0,-36.0,-13.0,211957.0
30298.13330078125,1693.0,-36.0,-15.0,211955.0
30311.47412109375,1694.0,-31.0,-16.0,211954.0
30324.81494140625,1695.0,-25.0,-16.0,211954.0
30338.156005859375,1696.0,-19.0,-14.0,211956.0
30351.496826171875,1697.0,-13.0,-12.0,211958.0
30364.837646484375,1698.0,-9.0,-11.0,211959.0
30378.1787109375,1699.0,-6.0,-11.0,211959.0
30391.51953125,1700.0,-5.0,-9.0,211961.0
30404.8603515625,1701.0,-5.0,-7.0,211963.0
30418.201171875,1702.0,-4.0,-4.0,211966.0
30431.542236328125,1703.0,-2.0,0.0,211970.0
30444.883056640625,1704.0,0.0,4.0,211974.0
30458.223876953125,1705.0,2.0,7.0,211977.0
30471.56494140625,1706.0,3.0,11.0,211981.0
30484.90576171875,1707.0,4.0,14.0,211984.0
30498.24658203125,1708.0,6.0,16.0,211986.0
30511.587646484375,1709.0,8.0,18.0,211988.0
30524.928466796875,1710.0,11.0,19.0,211989.0
30538.269287109375,1711.0,14.0,18.0,211988.0
30551.610107421875,1712.0,17.0,18.0,211988.0
30564.951171875,1713.0,17.0,19.0,211989.0
30578.2919921875,1714.0,16.0,18.0,211988.0
30591.6328125,1715.0,11.0,14.0,211984.0
30604.973876953125,1716.0,0.0,7.0,211977.0
30618.314697265625,1717.0,-15.0,-1.0,211969.0
30631.655517578125,1718.0,-29.0,-9.0,211961.0
30644.99658203125,1719.0,-38.0,-16.0,211954.0
30658.33740234375,1720.0,-41.0,-20.0,211950.0
30671.67822265625,1721.0,-41.0,-23.0,211947.0
30685.01904296875,1722.0,-37.0,-23.0,211947.0
30698.360107421875,1723.0,-33.0,-21.0,211949.0
30711.700927734375,1724.0,-29.0,-17.0,211953.0
30725.041748046875,1725.0,-26.0,-13.0,211957.0
30738.3828125,1726.0,-21.0,-7.0,211963.0
30751.7236328125,1727.0,-12.0,-1.0,211969.0
30765.064453125,1728.0,-4.0,4.0,211974.0
30778.405517578125,1729.0,4.0,6.0,211976.0
30791.746337890625,1730.0,10.0,6.0,211976.0
30805.087158203125,1731.0,14.0,5.0,211975.0
30818.427978515625,1732.0,15.0,7.0,211977.0
30831.76904296875,1733.0,16.0,10.0,211980.0
30845.10986328125,1734.0,15.0,12.0,211982.0
30858.45068359375,1735.0,13.0,13.0,211983.0
30871.791748046875,1736.0,10.0,13.0,211983.0
30885.132568359375,1737.0,5.0,13.0,211983.0
30898.473388671875,1738.0,0.0,11.0,211981.0
30911.814453125,1739.0,-6.0,9.0,211979.0
30925.1552734375,1740.0,-10.0,5.0,211975.0
30938.49609375,1741.0,-12.0,2.0,211972.0
30951.8369140625,1742.0,-13.0,1.0,211971.0
30965.177978515625,1743.0,-13.0,-1.0,211969.0
30978.518798828125,1744.0,-11.0,-2.0,211968.0
30991.859619140625,1745.0,-8.0,-2.0,211968.0
31005.20068359375,1746.0,-4.0,0.0,211970.0
31018.54150390625,1747.0,-2.0,5.0,211975.0
31031.88232421875,1748.0,0.0,10.0,211980.0
31045.223388671875,1749.0,0.0,15.0,211985.0
31058.564208984375,1750.0,0.0,20.0,211990.0
31071.905029296875,1751.0,0.0,23.0,211993.0
31085.245849609375,1752.0,1.0,26.0,211996.0
31098.5869140625,1753.0,0.0,27.0,211997.0
31111.927734375,1754.0,-2.0,28.0,211998.0
31125.2685546875,1755.0,-4.0,30.0,212000.0
31138.609619140625,1756.0,-4.0,34.0,212004.0
31151.950439453125,1757.0,-3.0,36.0,212006.0
31165.291259765625,1758.0,-2.0,38.0,212008.0
31178.63232421875,1759.0,-2.0,39.0,212009.0
31191.97314453125,1760.0,-1.0,37.0,212007.0
31205.31396484375,1761.0,2.0,35.0,212005.0
31218.65478515625,1762.0,5.0,32.0,212002.0
31231.995849609375,1763.0,8.0,32.0,212002.0
31245.336669921875,1764.0,13.0,33.0,212003.0
31258.677490234375,1765.0,19.0,33.0,212003.0
31272.0185546875,1766.0,21.0,32.0,212002.0
31285.359375,1767.0,21.0,29.0,211999.0
31298.7001953125,1768.0,16.0,25.0,211995.0
31312.041259765625,1769.0,7.0,19.0,211989.0
31325.382080078125,1770.0,-6.0,12.0,211982.0
31338.722900390625,1771.0,-21.0,2.0,211972.0
31352.06396484375,1772.0,-34.0,-6.0,211964.0
31365.40478515625,1773.0,-42.0,-10.0,211960.0
31378.74560546875,1774.0,-43.0,-14.0,211956.0
31392.08642578125,1775.0,-42.0,-14.0,211956.0
31405.427490234375,1776.0,-39.0,-13.0,211957.0
31418.768310546875,1777.0,-35.0,-11.0,211959.0
31432.109130859375,1778.0,-30.0,-7.0,211963.0
31445.4501953125,1779.0,-27.0,-2.0,211968.0
31458.791015625,1780.0,-25.0,4.0,211974.0
31472.1318359375,1781.0,-21.0,9.0,211979.0
31485.472900390625,1782.0,-18.0,12.0,211982.0
31498.813720703125,1783.0,-15.0,14.0,211984.0
31512.154541015625,1784.0,-12.0,15.0,211985.0
31525.495361328125,1785.0,-7.0,15.0,211985.0
31538.83642578125,1786.0,-3.0,14.0,211984.0
31552.17724609375,1787.0,-1.0,14.0,211984.0
31565.51806640625,1788.0,-1.0,14.0,211984.0
31578.859130859375,1789.0,-2.0,12.0,211982.0
31592.199951171875,1790.0,-6.0,8.0,211978.0
31605.540771484375,1791.0,-11.0,5.0,211975.0
31618.8818359375,1792.0,-15.0,4.0,211974.0
31632.22265625,1793.0,-18.0,5.0,211975.0
31645.5634765625,1794.0,-17.0,6.0,211976.0
31658.904296875,1795.0,-14.0,6.0,211976.0
31672.245361328125,1796.0,-13.0,7.0,211977.0
31685.586181640625,1797.0,-11.0,8.0,211978.0
31698.927001953125,1798.0,-10.0,9.0,211979.0
31712.26806640625,1799.0,-8.0,9.0,211979.0
31725.60888671875,1800.0,-7.0,9.0,211979.0
31738.94970703125,1801.0,-5.0,10.0,211980.0
31752.290771484375,1802.0,-2.0,14.0,211984.0
31765.631591796875,1803.0,0.0,20.0,211990.0
31778.972412109375,1804.0,2.0,27.0,211997.0
31792.313232421875,1805.0,4.0,30.0,212000.0
31805.654296875,1806.0,8.0,33.0,212003.0
31818.9951171875,1807.0,11.0,33.0,212003.0
31832.3359375,1808.0,13.0,30.0,212000.0
31845.677001953125,1809.0,13.0,28.0,211998.0
31859.017822265625,1810.0,11.0,26.0,211996.0
31872.358642578125,1811.0,7.0,24.0,211994.0
31885.69970703125,1812.0,3.0,24.0,211994.0
31899.04052734375,1813.0,-1.0,25.0,211995.0
31912.38134765625,1814.0,-2.0,25.0,211995.0
31925.72216796875,1815.0,0.0,26.0,211996.0
31939.063232421875,1816.0,3.0,27.0,211997.0
31952.404052734375,1817.0,7.0,29.0,211999.0
31965.744873046875,1818.0,10.0,28.0,211998.0
31979.0859375,1819.0,12.0,27.0,211997.0
31992.4267578125,1820.0,15.0,25.0,211995.0
32005.767578125,1821.0,17.0,20.0,211990.0
32019.108642578125,1822.0,18.0,15.0,211985.0
32032.449462890625,1823.0,15.0,9.0,211979.0
32045.790283203125,1824.0,8.0,4.0,211974.0
32059.131103515625,1825.0,-3.0,0.0,211970.0
32072.47216796875,1826.0,-14.0,-4.0,211966.0
32085.81298828125,1827.0,-23.0,-6.0,211964.0
32099.15380859375,1828.0,-29.0,-6.0,211964.0
32112.494873046875,1829.0,-30.0,-3.0,211967.0
32125.835693359375,1830.0,-25.0,2.0,211972.0
32139.176513671875,1831.0,-18.0,5.0,211975.0
32152.517578125,1832.0,-10.0,7.0,211977.0
32165.8583984375,1833.0,-3.0,6.0,211976.0
32179.19921875,1834.0,2.0,5.0,211975.0
32192.5400390625,1835.0,5.0,3.0,211973.0
32205.881103515625,1836.0,7.0,0.0,211970.0
32219.221923828125,1837.0,10.0,-2.0,211968.0
32232.562744140625,1838.0,13.0,-3.0,211967.0
32245.90380859375,1839.0,16.0,-1.0,211969.0
32259.24462890625,1840.0,18.0,4.0,211974.0
32272.58544921875,1841.0,19.0,10.0,211980.0
32285.926513671875,1842.0,16.0,15.0,211985.0
32299.267333984375,1843.0,12.0,17.0,211987.0
32312.608154296875,1844.0,7.0,15.0,211985.0
32325.948974609375,1845.0,5.0,12.0,211982.0
32339.2900390625,1846.0,4.0,9.0,211979.0
32352.630859375,1847.0,3.0,5.0,211975.0
32365.9716796875,1848.0,4.0,2.0,211972.0
32379.312744140625,1849.0,6.0,-1.0,211969.0
32392.653564453125,1850.0,8.0,-3.0,211967.0
32405.994384765625,1851.0,10.0,-3.0,211967.0
32419.33544921875,1852.0,11.0,-3.0,211967.0
32432.67626953125,1853.0,9.0,-1.0,211969.0
32446.01708984375,1854.0,7.0,0.0,211970.0
32459.35791015625,1855.0,5.0,0.0,211970.0
32472.698974609375,1856.0,5.0,2.0,211972.0
32486.039794921875,1857.0,6.0,3.0,211973.0
32499.380615234375,1858.0,7.0,5.0,211975.0
32512.7216796875,1859.0,8.0,5.0,211975.0
32526.0625,1860.0,8.0,4.0,211974.0
32539.4033203125,1861.0,6.0,3.0,211973.0
32552.744384765625,1862.0,3.0,2.0,211972.0
32566.085205078125,1863.0,0.0,-1.0,211969.0
32579.426025390625,1864.0,-2.0,-3.0,211967.0
32592.76708984375,1865.0,-3.0,-3.0,211967.0
32606.10791015625,1866.0,-5.0,-1.0,211969.0
32619.44873046875,1867.0,-7.0,1.0,211971.0
32632.78955078125,1868.0,-7.0,4.0,211974.0
32646.130615234375,1869.0,-3.0,4.0,211974.0
32659.471435546875,1870.0,0.0,2.0,211972.0
32672.812255859375,1871.0,4.0,0.0,211970.0
32686.1533203125,1872.0,8.0,-1.0,211969.0
32699.494140625,1873.0,11.0,-2.0,211968.0
32712.8349609375,1874.0,12.0,-1.0,211969.0
32726.176025390625,1875.0,12.0,2.0,211972.0
32739.516845703125,1876.0,10.0,2.0,211972.0
32752.857666015625,1877.0,4.0,-2.0,211968.0
32766.198486328125,1878.0,-5.0,-9.0,211961.0
32779.53955078125,1879.0,-16.0,-18.0,211952.0
32792.88037109375,1880.0,-26.0,-26.0,211944.0
32806.22119140625,1881.0,-37.0,-31.0,211939.0
32819.562255859375,1882.0,-44.0,-33.0,211937.0
32832.903076171875,1883.0,-46.0,-33.0,211937.0
32846.243896484375,1884.0,-44.0,-28.0,211942.0
32859.5849609375,1885.0,-39.0,-22.0,211948.0
32872.92578125,1886.0,-34.0,-16.0,211954.0
32886.2666015625,1887.0,-26.0,-12.0,211958.0
32899.607421875,1888.0,-21.0,-8.0,211962.0
32912.948486328125,1889.0,-15.0,-7.0,211963.0
32926.289306640625,1890.0,-10.0,-6.0,211964.0
32939.630126953125,1891.0,-8.0,-6.0,211964.0
32952.97119140625,1892.0,-7.0,-4.0,211966.0
32966.31201171875,1893.0,-4.0,-2.0,211968.0
32979.65283203125,1894.0,-1.0,1.0,211971.0
32992.993896484375,1895.0,2.0,5.0,211975.0
33006.334716796875,1896.0,3.0,8.0,211978.0
33019.675537109375,1897.0,3.0,9.0,211979.0
33033.016357421875,1898.0,2.0,8.0,211978.0
33046.357421875,1899.0,-1.0,6.0,211976.0
33059.6982421875,1900.0,-3.0,3.0,211973.0
33073.0390625,1901.0,-5.0,0.0,211970.0
33086.380126953125,1902.0,-9.0,-3.0,211967.0
33099.720947265625,1903.0,-13.0,-6.0,211964.0
33113.061767578125,1904.0,-17.0,-9.0,211961.0
33126.40283203125,1905.0,-21.0,-9.0,211961.0
33139.74365234375,1906.0,-22.0,-5.0,211965.0
33153.08447265625,1907.0,-21.0,1.0,211971.0
33166.42529296875,1908.0,-17.0,6.0,211976.0
33179.766357421875,1909.0,-14.0,8.0,211978.0
33193.107177734375,1910.0,-11.0,8.0,211978.0
33206.447998046875,1911.0,-9.0,9.0,211979.0
33219.7890625,1912.0,-7.0,11.0,211981.0
33233.1298828125,1913.0,-4.0,15.0,211985.0
33246.470703125,1914.0,-2.0,18.0,211988.0
33259.811767578125,1915.0,1.0,21.0,211991.0
33273.152587890625,1916.0,4.0,22.0,211992.0
33286.493408203125,1917.0,7.0,23.0,211993.0
33299.834228515625,1918.0,9.0,22.0,211992.0
33313.17529296875,1919.0,9.0,20.0,211990.0
33326.51611328125,1920.0,9.0,18.0,211988.0
33339.85693359375,1921.0,8.0,15.0,211985.0
33353.197998046875,1922.0,8.0,13.0,211983.0
33366.538818359375,1923.0,7.0,11.0,211981.0
33379.879638671875,1924.0,6.0,10.0,211980.0
33393.220703125,1925.0,6.0,8.0,211978.0
33406.5615234375,1926.0,5.0,7.0,211977.0
33419.90234375,1927.0,4.0,5.0,211975.0
33433.2431640625,1928.0,4.0,5.0,211975.0
33446.584228515625,1929.0,5.0,5.0,211975.0
33459.925048828125,1930.0,5.0,5.0,211975.0
33473.265869140625,1931.0,4.0,7.0,211977.0
33486.60693359375,1932.0,2.0,8.0,211978.0
33499.94775390625,1933.0,-2.0,8.0,211978.0
33513.28857421875,1934.0,-9.0,6.0,211976.0
33526.629638671875,1935.0,-20.0,3.0,211973.0
33539.970458984375,1936.0,-31.0,-4.0,211966.0
33553.311279296875,1937.0,-41.0,-12.0,211958.0
33566.652099609375,1938.0,-49.0,-18.0,211952.0
33579.9931640625,1939.0,-51.0,-21.0,211949.0
33593.333984375,1940.0,-50.0,-22.0,211948.0
33606.6748046875,1941.0,-46.0,-22.0,211948.0
33620.015869140625,1942.0,-43.0,-21.0,211949.0
33633.356689453125,1943.0,-39.0,-20.0,211950.0
33646.697509765625,1944.0,-35.0,-17.0,211953.0
33660.03857421875,1945.0,-30.0,-13.0,211957.0
33673.37939453125,1946.0,-26.0,-8.0,211962.0
33686.72021484375,1947.0,-22.0,-4.0,211966.0
33700.06103515625,1948.0,-21.0,0.0,211970.0
33713.402099609375,1949.0,-22.0,5.0,211975.0
33726.742919921875,1950.0,-24.0,8.0,211978.0
33740.083740234375,1951.0,-25.0,7.0,211977.0
33753.4248046875,1952.0,-27.0,4.0,211974.0
33766.765625,1953.0,-29.0,-1.0,211969.0
33780.1064453125,1954.0,-31.0,-6.0,211964.0
33793.447509765625,1955.0,-34.0,-10.0,211960.0
33806.788330078125,1956.0,-39.0,-15.0,211955.0
33820.129150390625,1957.0,-44.0,-20.0,211950.0
33833.47021484375,1958.0,-49.0,-23.0,211947.0
33846.81103515625,1959.0,-54.0,-24.0,211946.0
33860.15185546875,1960.0,-58.0,-21.0,211949.0
33873.49267578125,1961.0,-61.0,-17.0,211953.0
33886.833740234375,1962.0,-60.0,-13.0,211957.0
33900.174560546875,1963.0,-56.0,-10.0,211960.0
33913.515380859375,1964.0,-49.0,-7.0,211963.0
33926.8564453125,1965.0,-40.0,-6.0,211964.0
33940.197265625,1966.0,-34.0,-3.0,211967.0
33953.5380859375,1967.0,-28.0,-1.0,211969.0
33966.879150390625,1968.0,-22.0,3.0,211973.0
33980.219970703125,1969.0,-16.0,7.0,211977.0
33993.560791015625,1970.0,-11.0,10.0,211980.0
34006.901611328125,1971.0,-7.0,13.0,211983.0
34020.24267578125,1972.0,-3.0,14.0,211984.0
34033.58349609375,1973.0,1.0,14.0,211984.0
34046.92431640625,1974.0,6.0,16.0,211986.0
34060.265380859375,1975.0,11.0,20.0,211990.0
34073.606201171875,1976.0,14.0,23.0,211993.0
34086.947021484375,1977.0,14.0,25.0,211995.0
34100.2880859375,1978.0,15.0,26.0,211996.0
34113.62890625,1979.0,13.0,24.0,211994.0
34126.9697265625,1980.0,9.0,20.0,211990.0
34140.310546875,1981.0,4.0,17.0,211987.0
34153.651611328125,1982.0,0.0,13.0,211983.0
34166.992431640625,1983.0,-3.0,11.0,211981.0
34180.333251953125,1984.0,-5.0,9.0,211979.0
34193.67431640625,1985.0,-7.0,6.0,211976.0
34207.01513671875,1986.0,-8.0,2.0,211972.0
34220.35595703125,1987.0,-9.0,-2.0,211968.0
34233.697021484375,1988.0,-10.0,-5.0,211965.0
34247.037841796875,1989.0,-12.0,-6.0,211964.0
34260.378662109375,1990.0,-15.0,-7.0,211963.0
34273.719482421875,1991.0,-23.0,-10.0,211960.0
34287.060546875,1992.0,-34.0,-15.0,211955.0
34300.4013671875,1993.0,-47.0,-19.0,211951.0
34313.7421875,1994.0,-56.0,-22.0,211948.0
34327.083251953125,1995.0,-61.0,-23.0,211947.0
34340.424072265625,1996.0,-61.0,-23.0,211947.0
34353.764892578125,1997.0,-56.0,-21.0,211949.0
34367.10595703125,1998.0,-48.0,-19.0,211951.0
34380.44677734375,1999.0,-42.0,-14.0,211956.0
34393.78759765625,2000.0,-36.0,-12.0,211958.0
34407.12841796875,2001.0,-32.0,-8.0,211962.0
34420.469482421875,2002.0,-28.0,-3.0,211967.0
34433.810302734375,2003.0,-25.0,1.0,211971.0
34447.151123046875,2004.0,-23.0,4.0,211974.0
34460.4921875,2005.0,-22.0,6.0,211976.0
34473.8330078125,2006.0,-19.0,6.0,211976.0
34487.173828125,2007.0,-17.0,6.0,211976.0
34500.514892578125,2008.0,-15.0,5.0,211975.0
34513.855712890625,2009.0,-15.0,5.0,211975.0
34527.196533203125,2010.0,-14.0,4.0,211974.0
34540.537353515625,2011.0,-15.0,0.0,211970.0
34553.87841796875,2012.0,-16.0,-5.0,211965.0
34567.21923828125,2013.0,-19.0,-10.0,211960.0
34580.56005859375,2014.0,-22.0,-15.0,211955.0
34593.901123046875,2015.0,-24.0,-19.0,211951.0
34607.241943359375,2016.0,-26.0,-22.0,211948.0
34620.582763671875,2017.0,-28.0,-21.0,211949.0
34633.923828125,2018.0,-28.0,-20.0,211950.0
34647.2646484375,2019.0,-29.0,-18.0,211952.0
34660.60546875,2020.0,-28.0,-14.0,211956.0
34673.9462890625,2021.0,-25.0,-9.0,211961.0
34687.287353515625,2022.0,-21.0,-4.0,211966.0
34700.628173828125,2023.0,-17.0,0.0,211970.0
34713.968994140625,2024.0,-13.0,4.0,211974.0
34727.31005859375,2025.0,-9.0,6.0,211976.0
34740.65087890625,2026.0,-5.0,7.0,211977.0
34753.99169921875,2027.0,-4.0,5.0,211975.0
34767.332763671875,2028.0,-5.0,4.0,211974.0
34780.673583984375,2029.0,-7.0,5.0,211975.0
34794.014404296875,2030.0,-7.0,6.0,211976.0
34807.355224609375,2031.0,-6.0,8.0,211978.0
34820.6962890625,2032.0,-5.0,11.0,211981.0
34834.037109375,2033.0,-5.0,14.0,211984.0
34847.3779296875,2034.0,-5.0,18.0,211988.0
34860.718994140625,2035.0,-5.0,21.0,211991.0
34874.059814453125,2036.0,-4.0,21.0,211991.0
34887.400634765625,2037.0,-3.0,19.0,211989.0
34900.74169921875,2038.0,-1.0,15.0,211985.0
34914.08251953125,2039.0,1.0,11.0,211981.0
34927.42333984375,2040.0,2.0,6.0,211976.0
34940.76416015625,2041.0,2.0,2.0,211972.0
34954.105224609375,2042.0,3.0,1.0,211971.0
34967.446044921875,2043.0,6.0,0.0,211970.0
34980.786865234375,2044.0,8.0,0.0,211970.0
34994.1279296875,2045.0,9.0,-2.0,211968.0
35007.46875,2046.0,7.0,-3.0,211967.0
35020.8095703125,2047.0,3.0,-5.0,211965.0
35034.150634765625,2048.0,-1.0,-6.0,211964.0
35047.491455078125,2049.0,-8.0,-8.0,211962.0
35060.832275390625,2050.0,-16.0,-11.0,211959.0
35074.17333984375,2051.0,-25.0,-15.0,211955.0
35087.51416015625,2052.0,-33.0,-20.0,211950.0
35100.85498046875,2053.0,-42.0,-27.0,211943.0
35114.19580078125,2054.0,-47.0,-33.0,211937.0
35127.536865234375,2055.0,-45.0,-38.0,211932.0
35140.877685546875,2056.0,-39.0,-40.0,211930.0
35154.218505859375,2057.0,-31.0,-40.0,211930.0
35167.5595703125,2058.0,-24.0,-35.0,211935.0
35180.900390625,2059.0,-16.0,-29.0,211941.0
35194.2412109375,2060.0,-10.0,-23.0,211947.0
35207.582275390625,2061.0,-3.0,-17.0,211953.0
35220.923095703125,2062.0,1.0,-15.0,211955.0
35234.263916015625,2063.0,4.0,-14.0,211956.0
35247.604736328125,2064.0,6.0,-13.0,211957.0
35260.94580078125,2065.0,9.0,-12.0,211958.0
35274.28662109375,2066.0,12.0,-12.0,211958.0
35287.62744140625,2067.0,14.0,-12.0,211958.0
35300.968505859375,2068.0,14.0,-14.0,211956.0
35314.309326171875,2069.0,15.0,-17.0,211953.0
35327.650146484375,2070.0,14.0,-20.0,211950.0
35340.9912109375,2071.0,13.0,-23.0,211947.0
35354.33203125,2072.0,11.0,-23.0,211947.0
35367.6728515625,2073.0,9.0,-22.0,211948.0
35381.013671875,2074.0,7.0,-20.0,211950.0
35394.354736328125,2075.0,6.0,-18.0,211952.0
35407.695556640625,2076.0,6.0,-13.0,211957.0
35421.036376953125,2077.0,6.0,-9.0,211961.0
35434.37744140625,2078.0,7.0,-6.0,211964.0
35447.71826171875,2079.0,7.0,-4.0,211966.0
35461.05908203125,2080.0,7.0,-4.0,211966.0
35474.400146484375,2081.0,8.0,-4.0,211966.0
35487.740966796875,2082.0,11.0,-5.0,211965.0
35501.081787109375,2083.0,14.0,-5.0,211965.0
35514.422607421875,2084.0,17.0,-5.0,211965.0
35527.763671875,2085.0,19.0,-6.0,211964.0
35541.1044921875,2086.0,21.0,-6.0,211964.0
35554.4453125,2087.0,24.0,-6.0,211964.0
35567.786376953125,2088.0,28.0,-5.0,211965.0
35581.127197265625,2089.0,30.0,-5.0,211965.0
35594.468017578125,2090.0,30.0,-5.0,211965.0
35607.80908203125,2091.0,31.0,-5.0,211965.0
35621.14990234375,2092.0,31.0,-4.0,211966.0
35634.49072265625,2093.0,33.0,-4.0,211966.0
35647.83154296875,2094.0,32.0,-4.0,211966.0
35661.172607421875,2095.0,30.0,-4.0,211966.0
35674.513427734375,2096.0,30.0,-4.0,211966.0
35687.854248046875,2097.0,29.0,-2.0,211968.0
35701.1953125,2098.0,29.0,1.0,211971.0
35714.5361328125,2099.0,30.0,6.0,211976.0
35727.876953125,2100.0,30.0,10.0,211980.0
35741.218017578125,2101.0,23.0,10.0,211980.0
35754.558837890625,2102.0,13.0,6.0,211976.0
35767.899658203125,2103.0,0.0,0.0,211970.0
35781.240478515625,2104.0,-12.0,-8.0,211962.0
35794.58154296875,2105.0,-22.0,-16.0,211954.0
35807.92236328125,2106.0,-30.0,-21.0,211949.0
35821.26318359375,2107.0,-33.0,-21.0,211949.0
35834.604248046875,2108.0,-33.0,-16.0,211954.0
35847.945068359375,2109.0,-29.0,-11.0,211959.0
35861.285888671875,2110.0,-22.0,-6.0,211964.0
35874.626953125,2111.0,-14.0,-3.0,211967.0
35887.9677734375,2112.0,-6.0,-1.0,211969.0
35901.30859375,2113.0,0.0,0.0,211970.0
35914.6494140625,2114.0,6.0,0.0,211970.0
35927.990478515625,2115.0,12.0,0.0,211970.0
35941.331298828125,2116.0,17.0,2.0,211972.0
35954.672119140625,2117.0,20.0,5.0,211975.0
35968.01318359375,2118.0,22.0,8.0,211978.0
35981.35400390625,2119.0,22.0,11.0,211981.0
35994.69482421875,2120.0,21.0,13.0,211983.0
36008.035888671875,2121.0,18.0,14.0,211984.0
36021.376708984375,2122.0,14.0,12.0,211982.0
36034.717529296875,2123.0,11.0,11.0,211981.0
36048.058349609375,2124.0,6.0,10.0,211980.0
36061.3994140625,2125.0,1.0,9.0,211979.0
36074.740234375,2126.0,-3.0,6.0,211976.0
36088.0810546875,2127.0,-6.0,3.0,211973.0
36101.422119140625,2128.0,-7.0,1.0,211971.0
36114.762939453125,2129.0,-5.0,0.0,211970.0
36128.103759765625,2130.0,-4.0,-1.0,211969.0
36141.44482421875,2131.0,-1.0,-1.0,211969.0
36154.78564453125,2132.0,3.0,0.0,211970.0
36168.12646484375,2133.0,8.0,2.0,211972.0
36181.46728515625,2134.0,13.0,4.0,211974.0
36194.808349609375,2135.0,17.0,4.0,211974.0
36208.149169921875,2136.0,23.0,3.0,211973.0
36221.489990234375,2137.0,26.0,2.0,211972.0
36234.8310546875,2138.0,28.0,2.0,211972.0
36248.171875,2139.0,27.0,2.0,211972.0
36261.5126953125,2140.0,27.0,2.0,211972.0
36274.853759765625,2141.0,26.0,4.0,211974.0
36288.194580078125,2142.0,26.0,7.0,211977.0
36301.535400390625,2143.0,28.0,11.0,211981.0
36314.87646484375,2144.0,32.0,16.0,211986.0
36328.21728515625,2145.0,34.0,18.0,211988.0
36341.55810546875,2146.0,36.0,20.0,211990.0
36354.89892578125,2147.0,37.0,24.0,211994.0
36368.239990234375,2148.0,36.0,28.0,211998.0
36381.580810546875,2149.0,38.0,30.0,212000.0
36394.921630859375,2150.0,41.0,31.0,212001.0
36408.2626953125,2151.0,45.0,31.0,212001.0
36421.603515625,2152.0,48.0,29.0,211999.0
36434.9443359375,2153.0,48.0,28.0,211998.0
36448.285400390625,2154.0,42.0,25.0,211995.0
36461.626220703125,2155.0,31.0,18.0,211988.0
36474.967041015625,2156.0,15.0,10.0,211980.0
36488.307861328125,2157.0,-2.0,1.0,211971.0
36501.64892578125,2158.0,-19.0,-8.0,211962.0
36514.98974609375,2159.0,-32.0,-17.0,211953.0
36528.33056640625,2160.0,-41.0,-23.0,211947.0
36541.671630859375,2161.0,-46.0,-24.0,211946.0
36555.012451171875,2162.0,-46.0,-22.0,211948.0
36568.353271484375,2163.0,-43.0,-20.0,211950.0
36581.6943359375,2164.0,-34.0,-16.0,211954.0
36595.03515625,2165.0,-24.0,-10.0,211960.0
36608.3759765625,2166.0,-13.0,-6.0,211964.0
36621.716796875,2167.0,-5.0,-1.0,211969.0
36635.057861328125,2168.0,0.0,3.0,211973.0
36648.398681640625,2169.0,4.0,5.0,211975.0
36661.739501953125,2170.0,6.0,6.0,211976.0
36675.08056640625,2171.0,9.0,7.0,211977.0
36688.42138671875,2172.0,13.0,10.0,211980.0
36701.76220703125,2173.0,16.0,11.0,211981.0
36715.103271484375,2174.0,19.0,13.0,211983.0
36728.444091796875,2175.0,18.0,14.0,211984.0
36741.784912109375,2176.0,14.0,12.0,211982.0
36755.125732421875,2177.0,8.0,8.0,211978.0
36768.466796875,2178.0,2.0,3.0,211973.0
36781.8076171875,2179.0,-3.0,-1.0,211969.0
36795.1484375,2180.0,-5.0,-4.0,211966.0
36808.489501953125,2181.0,-7.0,-5.0,211965.0
36821.830322265625,2182.0,-7.0,-6.0,211964.0
36835.171142578125,2183.0,-6.0,-7.0,211963.0
36848.51220703125,2184.0,-6.0,-7.0,211963.0
36861.85302734375,2185.0,-6.0,-3.0,211967.0
36875.19384765625,2186.0,-5.0,3.0,211973.0
36888.53466796875,2187.0,-2.0,9.0,211979.0
36901.875732421875,2188.0,1.0,15.0,211985.0
36915.216552734375,2189.0,5.0,19.0,211989.0
36928.557373046875,2190.0,10.0,22.0,211992.0
36941.8984375,2191.0,15.0,21.0,211991.0
36955.2392578125,2192.0,18.0,20.0,211990.0
36968.580078125,2193.0,20.0,18.0,211988.0
36981.921142578125,2194.0,19.0,16.0,211986.0
36995.261962890625,2195.0,18.0,13.0,211983.0
37008.602783203125,2196.0,17.0,10.0,211980.0
37021.943603515625,2197.0,16.0,9.0,211979.0
37035.28466796875,2198.0,15.0,8.0,211978.0
37048.62548828125,2199.0,12.0,8.0,211978.0
37061.96630859375,2200.0,12.0,9.0,211979.0
37075.307373046875,2201.0,15.0,11.0,211981.0
37088.648193359375,2202.0,18.0,13.0,211983.0
37101.989013671875,2203.0,20.0,15.0,211985.0
37115.330078125,2204.0,21.0,15.0,211985.0
37128.6708984375,2205.0,19.0,16.0,211986.0
37142.01171875,2206.0,18.0,17.0,211987.0
37155.3525390625,2207.0,16.0,14.0,211984.0
37168.693603515625,2208.0,10.0,6.0,211976.0
37182.034423828125,2209.0,-2.0,-4.0,211966.0
37195.375244140625,2210.0,-18.0,-15.0,211955.0
37208.71630859375,2211.0,-34.0,-25.0,211945.0
37222.05712890625,2212.0,-45.0,-34.0,211936.0
37235.39794921875,2213.0,-51.0,-39.0,211931.0
37248.739013671875,2214.0,-54.0,-42.0,211928.0
37262.079833984375,2215.0,-53.0,-41.0,211929.0
37275.420654296875,2216.0,-50.0,-37.0,211933.0
37288.761474609375,2217.0,-45.0,-30.0,211940.0
37302.1025390625,2218.0,-36.0,-23.0,211947.0
37315.443359375,2219.0,-25.0,-16.0,211954.0
37328.7841796875,2220.0,-12.0,-9.0,211961.0
37342.125244140625,2221.0,-2.0,-1.0,211969.0
37355.466064453125,2222.0,5.0,4.0,211974.0
37368.806884765625,2223.0,9.0,8.0,211978.0
37382.14794921875,2224.0,10.0,9.0,211979.0
37395.48876953125,2225.0,11.0,9.0,211979.0
37408.82958984375,2226.0,14.0,8.0,211978.0
37422.17041015625,2227.0,16.0,8.0,211978.0
37435.511474609375,2228.0,16.0,8.0,211978.0
37448.852294921875,2229.0,13.0,7.0,211977.0
37462.193115234375,2230.0,7.0,6.0,211976.0
37475.5341796875,2231.0,0.0,4.0,211974.0
37488.875,2232.0,-6.0,0.0,211970.0
37502.2158203125,2233.0,-9.0,-7.0,211963.0
37515.556884765625,2234.0,-11.0,-12.0,211958.0
37528.897705078125,2235.0,-11.0,-15.0,211955.0
37542.238525390625,2236.0,-8.0,-15.0,211955.0
37555.57958984375,2237.0,-3.0,-13.0,211957.0
37568.92041015625,2238.0,1.0,-10.0,211960.0
37582.26123046875,2239.0,6.0,-4.0,211966.0
37595.60205078125,2240.0,10.0,-1.0,211969.0
37608.943115234375,2241.0,11.0,4.0,211974.0
37622.283935546875,2242.0,10.0,8.0,211978.0
37635.624755859375,2243.0,8.0,12.0,211982.0
37648.9658203125,2244.0,4.0,16.0,211986.0
37662.306640625,2245.0,0.0,24.0,211994.0
37675.6474609375,2246.0,-2.0,32.0,212002.0
37688.988525390625,2247.0,-3.0,38.0,212008.0
37702.329345703125,2248.0,-5.0,41.0,212011.0
37715.670166015625,2249.0,-7.0,42.0,212012.0
37729.010986328125,2250.0,-8.0,40.0,212010.0
37742.35205078125,2251.0,-6.0,38.0,212008.0
37755.69287109375,2252.0,-3.0,36.0,212006.0
37769.03369140625,2253.0,1.0,37.0,212007.0
37782.374755859375,2254.0,7.0,37.0,212007.0
37795.715576171875,2255.0,12.0,39.0,212009.0
37809.056396484375,2256.0,15.0,41.0,212011.0
37822.3974609375,2257.0,16.0,42.0,212012.0
37835.73828125,2258.0,15.0,45.0,212015.0
37849.0791015625,2259.0,12.0,45.0,212015.0
37862.419921875,2260.0,5.0,43.0,212013.0
37875.760986328125,2261.0,-7.0,38.0,212008.0
37889.101806640625,2262.0,-23.0,31.0,212001.0
37902.442626953125,2263.0,-38.0,19.0,211989.0
37915.78369140625,2264.0,-52.0,8.0,211978.0
37929.12451171875,2265.0,-62.0,-2.0,211968.0
37942.46533203125,2266.0,-68.0,-10.0,211960.0
37955.806396484375,2267.0,-69.0,-14.0,211956.0
37969.147216796875,2268.0,-67.0,-16.0,211954.0
37982.488037109375,2269.0,-63.0,-15.0,211955.0
37995.828857421875,2270.0,-59.0,-11.0,211959.0
38009.169921875,2271.0,-53.0,-7.0,211963.0
38022.5107421875,2272.0,-48.0,-4.0,211966.0
38035.8515625,2273.0,-45.0,0.0,211970.0
38049.192626953125,2274.0,-39.0,4.0,211974.0
38062.533447265625,2275.0,-33.0,10.0,211980.0
38075.874267578125,2276.0,-25.0,17.0,211987.0
38089.21533203125,2277.0,-19.0,22.0,211992.0
38102.55615234375,2278.0,-14.0,25.0,211995.0
38115.89697265625,2279.0,-8.0,27.0,211997.0
38129.23779296875,2280.0,-2.0,27.0,211997.0
38142.578857421875,2281.0,-1.0,25.0,211995.0
38155.919677734375,2282.0,-5.0,21.0,211991.0
38169.260498046875,2283.0,-12.0,17.0,211987.0
38182.6015625,2284.0,-20.0,11.0,211981.0
38195.9423828125,2285.0,-27.0,7.0,211977.0
38209.283203125,2286.0,-33.0,5.0,211975.0
38222.624267578125,2287.0,-35.0,6.0,211976.0
38235.965087890625,2288.0,-35.0,7.0,211977.0
38249.305908203125,2289.0,-32.0,7.0,211977.0
38262.646728515625,2290.0,-30.0,7.0,211977.0
38275.98779296875,2291.0,-28.0,9.0,211979.0
38289.32861328125,2292.0,-24.0,11.0,211981.0
38302.66943359375,2293.0,-20.0,14.0,211984.0
38316.010498046875,2294.0,-17.0,18.0,211988.0
38329.351318359375,2295.0,-14.0,21.0,211991.0
38342.692138671875,2296.0,-11.0,23.0,211993.0
38356.033203125,2297.0,-9.0,24.0,211994.0
38369.3740234375,2298.0,-8.0,25.0,211995.0
38382.71484375,2299.0,-7.0,24.0,211994.0
38396.0556640625,2300.0,-5.0,24.0,211994.0
38409.396728515625,2301.0,-2.0,25.0,211995.0
38422.737548828125,2302.0,-2.0,25.0,211995.0
38436.078369140625,2303.0,-3.0,23.0,211993.0
38449.41943359375,2304.0,-4.0,23.0,211993.0
38462.76025390625,2305.0,-4.0,24.0,211994.0
38476.10107421875,2306.0,-3.0,28.0,211998.0
38489.442138671875,2307.0,-1.0,31.0,212001.0
38502.782958984375,2308.0,1.0,34.0,212004.0
38516.123779296875,2309.0,2.0,31.0,212001.0
38529.464599609375,2310.0,-2.0,25.0,211995.0
38542.8056640625,2311.0,-10.0,15.0,211985.0
38556.146484375,2312.0,-21.0,3.0,211973.0
38569.4873046875,2313.0,-31.0,-9.0,211961.0
38582.828369140625,2314.0,-42.0,-19.0,211951.0
38596.169189453125,2315.0,-49.0,-26.0,211944.0
38609.510009765625,2316.0,-55.0,-29.0,211941.0
38622.85107421875,2317.0,-57.0,-28.0,211942.0
38636.19189453125,2318.0,-57.0,-27.0,211943.0
38649.53271484375,2319.0,-53.0,-25.0,211945.0
38662.87353515625,2320.0,-45.0,-23.0,211947.0
38676.214599609375,2321.0,-38.0,-21.0,211949.0
38689.555419921875,2322.0,-30.0,-17.0,211953.0
38702.896240234375,2323.0,-25.0,-12.0,211958.0
38716.2373046875,2324.0,-21.0,-5.0,211965.0
38729.578125,2325.0,-17.0,2.0,211972.0
38742.9189453125,2326.0,-15.0,6.0,211976.0
38756.260009765625,2327.0,-14.0,7.0,211977.0
38769.600830078125,2328.0,-13.0,8.0,211978.0
38782.941650390625,2329.0,-13.0,8.0,211978.0
38796.28271484375,2330.0,-13.0,8.0,211978.0
38809.62353515625,2331.0,-17.0,6.0,211976.0
38822.96435546875,2332.0,-21.0,4.0,211974.0
38836.30517578125,2333.0,-25.0,0.0,211970.0
38849.646240234375,2334.0,-29.0,-1.0,211969.0
38862.987060546875,2335.0,-32.0,-1.0,211969.0
38876.327880859375,2336.0,-33.0,1.0,211971.0
38889.6689453125,2337.0,-31.0,1.0,211971.0
38903.009765625,2338.0,-28.0,3.0,211973.0
38916.3505859375,2339.0,-25.0,4.0,211974.0
38929.691650390625,2340.0,-21.0,5.0,211975.0
38943.032470703125,2341.0,-18.0,6.0,211976.0
38956.373291015625,2342.0,-15.0,7.0,211977.0
38969.714111328125,2343.0,-11.0,9.0,211979.0
38983.05517578125,2344.0,-5.0,13.0,211983.0
38996.39599609375,2345.0,2.0,17.0,211987.0
39009.73681640625,2346.0,8.0,21.0,211991.0
39023.077880859375,2347.0,11.0,23.0,211993.0
39036.418701171875,2348.0,12.0,24.0,211994.0
39049.759521484375,2349.0,13.0,25.0,211995.0
39063.1005859375,2350.0,14.0,24.0,211994.0
39076.44140625,2351.0,15.0,25.0,211995.0
39089.7822265625,2352.0,15.0,25.0,211995.0
39103.123046875,2353.0,12.0,23.0,211993.0
39116.464111328125,2354.0,8.0,23.0,211993.0
39129.804931640625,2355.0,5.0,23.0,211993.0
39143.145751953125,2356.0,4.0,22.0,211992.0
39156.48681640625,2357.0,6.0,22.0,211992.0
39169.82763671875,2358.0,8.0,23.0,211993.0
39183.16845703125,2359.0,11.0,23.0,211993.0
39196.509521484375,2360.0,11.0,21.0,211991.0
39209.850341796875,2361.0,8.0,17.0,211987.0
39223.191162109375,2362.0,0.0,12.0,211982.0
39236.531982421875,2363.0,-13.0,5.0,211975.0
39249.873046875,2364.0,-27.0,-4.0,211966.0
39263.2138671875,2365.0,-39.0,-12.0,211958.0
39276.5546875,2366.0,-48.0,-19.0,211951.0
39289.895751953125,2367.0,-53.0,-23.0,211947.0
39303.236572265625,2368.0,-52.0,-25.0,211945.0
39316.577392578125,2369.0,-51.0,-24.0,211946.0
39329.91845703125,2370.0,-50.0,-22.0,211948.0
39343.25927734375,2371.0,-49.0,-19.0,211951.0
39356.60009765625,2372.0,-48.0,-15.0,211955.0
39369.94091796875,2373.0,-45.0,-12.0,211958.0
39383.281982421875,2374.0,-41.0,-8.0,211962.0
39396.622802734375,2375.0,-35.0,-5.0,211965.0
39409.963623046875,2376.0,-29.0,-2.0,211968.0
39423.3046875,2377.0,-23.0,1.0,211971.0
39436.6455078125,2378.0,-16.0,4.0,211974.0
39449.986328125,2379.0,-12.0,8.0,211978.0
39463.327392578125,2380.0,-9.0,11.0,211981.0
39476.668212890625,2381.0,-9.0,15.0,211985.0
39490.009033203125,2382.0,-12.0,17.0,211987.0
39503.349853515625,2383.0,-16.0,17.0,211987.0
39516.69091796875,2384.0,-20.0,14.0,211984.0
39530.03173828125,2385.0,-25.0,11.0,211981.0
39543.37255859375,2386.0,-28.0,8.0,211978.0
39556.713623046875,2387.0,-28.0,5.0,211975.0
39570.054443359375,2388.0,-28.0,2.0,211972.0
