timestamp,sampleNum,BIOZI,BIOZQ,BIOZ
15279.3408203125,1.0,155145.0,-80435.0,135275.0
15292.681884765625,2.0,229964.0,-126040.0,89670.0
15306.022705078125,3.0,290895.0,-163864.0,51846.0
15319.36376953125,4.0,333370.0,-190686.0,25024.0
15332.70458984375,5.0,358340.0,-206821.0,8889.0
15346.045654296875,6.0,369368.0,-214310.0,1400.0
15359.386474609375,7.0,370713.0,-215710.0,0.0
15372.7275390625,8.0,366227.0,-213383.0,2327.0
15386.068359375,9.0,358890.0,-209179.0,6531.0
15399.4091796875,10.0,350710.0,-204365.0,11345.0
15412.750244140625,11.0,342857.0,-199689.0,16021.0
15426.091064453125,12.0,335872.0,-195510.0,20200.0
15439.43212890625,13.0,329882.0,-191925.0,23785.0
15452.77294921875,14.0,324784.0,-188885.0,26825.0
15466.114013671875,15.0,320375.0,-186272.0,29438.0
15479.454833984375,16.0,316443.0,-183958.0,31752.0
15492.7958984375,17.0,312801.0,-181828.0,33882.0
15506.13671875,18.0,309315.0,-179799.0,35911.0
15519.4775390625,19.0,305896.0,-177813.0,37897.0
15532.818603515625,20.0,302494.0,-175839.0,39871.0
15546.159423828125,21.0,299087.0,-173864.0,41846.0
15559.50048828125,22.0,295675.0,-171885.0,43825.0
15572.84130859375,23.0,292263.0,-169903.0,45807.0
15586.182373046875,24.0,288862.0,-167926.0,47784.0
15599.523193359375,25.0,285482.0,-165961.0,49749.0
15612.8642578125,26.0,282131.0,-164012.0,51698.0
15626.205078125,27.0,278815.0,-162082.0,53628.0
15639.5458984375,28.0,275538.0,-160175.0,55535.0
15652.886962890625,29.0,272298.0,-158292.0,57418.0
15666.227783203125,30.0,269096.0,-156435.0,59275.0
15679.56884765625,31.0,265931.0,-154603.0,61107.0
15692.90966796875,32.0,262803.0,-152796.0,62914.0
15706.250732421875,33.0,259710.0,-151013.0,64697.0
15719.591552734375,34.0,256656.0,-149250.0,66460.0
15732.9326171875,35.0,253641.0,-147507.0,68203.0
15746.2734375,36.0,250664.0,-145782.0,69928.0
15759.6142578125,37.0,247724.0,-144078.0,71632.0
15772.955322265625,38.0,244821.0,-142390.0,73320.0
15786.296142578125,39.0,241956.0,-140721.0,74989.0
15799.63720703125,40.0,239124.0,-139069.0,76641.0
15812.97802734375,41.0,236324.0,-137435.0,78275.0
15826.319091796875,42.0,233558.0,-135821.0,79889.0
15839.659912109375,43.0,230826.0,-134226.0,81484.0
15853.0009765625,44.0,228125.0,-132647.0,83063.0
15866.341796875,45.0,225457.0,-131086.0,84624.0
15879.6826171875,46.0,222821.0,-129547.0,86163.0
15893.023681640625,47.0,220215.0,-128029.0,87681.0
15906.364501953125,48.0,217638.0,-126530.0,89180.0
15919.70556640625,49.0,215092.0,-125048.0,90662.0
15933.04638671875,50.0,212574.0,-123584.0,92126.0
15946.387451171875,51.0,210085.0,-122138.0,93572.0
15959.728271484375,52.0,207622.0,-120711.0,94999.0
15973.0693359375,53.0,205186.0,-119302.0,96408.0
15986.41015625,54.0,202776.0,-117909.0,97801.0
15999.7509765625,55.0,200393.0,-116533.0,99177.0
16013.092041015625,56.0,198039.0,-115169.0,100541.0
16026.432861328125,57.0,195713.0,-113819.0,101891.0
16039.77392578125,58.0,193418.0,-112483.0,103227.0
16053.11474609375,59.0,191152.0,-111160.0,104550.0
16066.455810546875,60.0,188915.0,-109854.0,105856.0
16079.796630859375,61.0,186705.0,-108562.0,107148.0
16093.1376953125,62.0,184522.0,-107287.0,108423.0
16106.478515625,63.0,182365.0,-106027.0,109683.0
16119.8193359375,64.0,180233.0,-104779.0,110931.0
16133.160400390625,65.0,178124.0,-103547.0,112163.0
16146.501220703125,66.0,176040.0,-102331.0,113379.0
16159.84228515625,67.0,173980.0,-101131.0,114579.0
16173.18310546875,68.0,171942.0,-99944.0,115766.0
16186.524169921875,69.0,169927.0,-98771.0,116939.0
16199.864990234375,70.0,167935.0,-97614.0,118096.0
16213.2060546875,71.0,165966.0,-96471.0,119239.0
16226.546875,72.0,164019.0,-95342.0,120368.0
16239.8876953125,73.0,162098.0,-94226.0,121484.0
16253.228759765625,74.0,160201.0,-93122.0,122588.0
16266.569580078125,75.0,158326.0,-92028.0,123682.0
16279.91064453125,76.0,156474.0,-90947.0,124763.0
16293.25146484375,77.0,154642.0,-89879.0,125831.0
16306.592529296875,78.0,152831.0,-88825.0,126885.0
16319.933349609375,79.0,151038.0,-87785.0,127925.0
16333.2744140625,80.0,149263.0,-86759.0,128951.0
16346.615234375,81.0,147507.0,-85748.0,129962.0
16359.9560546875,82.0,145767.0,-84750.0,130960.0
16373.297119140625,83.0,144049.0,-83765.0,131945.0
16386.637939453125,84.0,142351.0,-82790.0,132920.0
16399.97900390625,85.0,140677.0,-81825.0,133885.0
16413.31982421875,86.0,139024.0,-80867.0,134843.0
16426.660888671875,87.0,137397.0,-79917.0,135793.0
16440.001708984375,88.0,135790.0,-78978.0,136732.0
16453.3427734375,89.0,134203.0,-78047.0,137663.0
16466.68359375,90.0,132635.0,-77127.0,138583.0
16480.0244140625,91.0,131086.0,-76220.0,139490.0
16493.365478515625,92.0,129554.0,-75324.0,140386.0
16506.706298828125,93.0,128043.0,-74440.0,141270.0
16520.04736328125,94.0,126550.0,-73567.0,142143.0
16533.38818359375,95.0,125074.0,-72701.0,143009.0
16546.729248046875,96.0,123613.0,-71845.0,143865.0
16560.070068359375,97.0,122167.0,-71000.0,144710.0
16573.4111328125,98.0,120737.0,-70167.0,145543.0
16586.751953125,99.0,119321.0,-69346.0,146364.0
16600.0927734375,100.0,117919.0,-68539.0,147171.0
16613.433837890625,101.0,116530.0,-67739.0,147971.0
16626.774658203125,102.0,115156.0,-66948.0,148762.0
16640.11572265625,103.0,113801.0,-66165.0,149545.0
16653.45654296875,104.0,112463.0,-65392.0,150318.0
16666.797607421875,105.0,111143.0,-64627.0,151083.0
16680.138427734375,106.0,109839.0,-63871.0,151839.0
16693.4794921875,107.0,108553.0,-63122.0,152588.0
16706.8203125,108.0,107282.0,-62380.0,153330.0
16720.1611328125,109.0,106027.0,-61643.0,154067.0
16733.502197265625,110.0,104788.0,-60914.0,154796.0
16746.843017578125,111.0,103564.0,-60195.0,155515.0
16760.18408203125,112.0,102353.0,-59485.0,156225.0
16773.52490234375,113.0,101157.0,-58785.0,156925.0
16786.865966796875,114.0,99975.0,-58093.0,157617.0
16800.206787109375,115.0,98807.0,-57409.0,158301.0
16813.5478515625,116.0,97653.0,-56735.0,158975.0
16826.888671875,117.0,96511.0,-56070.0,159640.0
16840.2294921875,118.0,95384.0,-55412.0,160298.0
16853.570556640625,119.0,94269.0,-54761.0,160949.0
16866.911376953125,120.0,93166.0,-54120.0,161590.0
16880.25244140625,121.0,92075.0,-53486.0,162224.0
16893.59326171875,122.0,90996.0,-52860.0,162850.0
16906.934326171875,123.0,89930.0,-52241.0,163469.0
16920.275146484375,124.0,88876.0,-51632.0,164078.0
16933.6162109375,125.0,87838.0,-51031.0,164679.0
16946.95703125,126.0,86809.0,-50437.0,165273.0
16960.2978515625,127.0,85790.0,-49849.0,165861.0
16973.638916015625,128.0,84779.0,-49270.0,166440.0
16986.979736328125,129.0,83775.0,-48699.0,167011.0
17000.32080078125,130.0,82782.0,-48134.0,167576.0
17013.66162109375,131.0,81802.0,-47575.0,168135.0
17027.002685546875,132.0,80837.0,-47023.0,168687.0
17040.343505859375,133.0,79885.0,-46474.0,169236.0
17053.6845703125,134.0,78948.0,-45928.0,169782.0
17067.025390625,135.0,78024.0,-45387.0,170323.0
17080.3662109375,136.0,77113.0,-44851.0,170859.0
17093.707275390625,137.0,76215.0,-44322.0,171388.0
17107.048095703125,138.0,75330.0,-43802.0,171908.0
17120.38916015625,139.0,74456.0,-43288.0,172422.0
17133.72998046875,140.0,73591.0,-42777.0,172933.0
17147.071044921875,141.0,72733.0,-42273.0,173437.0
17160.411865234375,142.0,71886.0,-41774.0,173936.0
17173.7529296875,143.0,71046.0,-41279.0,174431.0
17187.09375,144.0,70215.0,-40789.0,174921.0
17200.4345703125,145.0,69393.0,-40305.0,175405.0
17213.775634765625,146.0,68580.0,-39830.0,175880.0
17227.116455078125,147.0,67774.0,-39364.0,176346.0
17240.45751953125,148.0,66973.0,-38908.0,176802.0
17253.79833984375,149.0,66179.0,-38460.0,177250.0
17267.139404296875,150.0,65393.0,-38016.0,177694.0
17280.480224609375,151.0,64615.0,-37575.0,178135.0
17293.8212890625,152.0,63848.0,-37136.0,178574.0
17307.162109375,153.0,63096.0,-36700.0,179010.0
17320.5029296875,154.0,62354.0,-36270.0,179440.0
17333.843994140625,155.0,61625.0,-35845.0,179865.0
17347.184814453125,156.0,60905.0,-35424.0,180286.0
17360.52587890625,157.0,60195.0,-35007.0,180703.0
17373.86669921875,158.0,59494.0,-34594.0,181116.0
17387.207763671875,159.0,58801.0,-34185.0,181525.0
17400.548583984375,160.0,58116.0,-33781.0,181929.0
17413.8896484375,161.0,57438.0,-33380.0,182330.0
17427.23046875,162.0,56768.0,-32986.0,182724.0
17440.5712890625,163.0,56105.0,-32597.0,183113.0
17453.912353515625,164.0,55447.0,-32214.0,183496.0
17467.253173828125,165.0,54799.0,-31836.0,183874.0
17480.59423828125,166.0,54157.0,-31461.0,184249.0
17493.93505859375,167.0,53522.0,-31089.0,184621.0
17507.276123046875,168.0,52896.0,-30722.0,184988.0
17520.616943359375,169.0,52277.0,-30360.0,185350.0
17533.9580078125,170.0,51668.0,-30005.0,185705.0
17547.298828125,171.0,51068.0,-29655.0,186055.0
17560.6396484375,172.0,50471.0,-29310.0,186400.0
17573.980712890625,173.0,49879.0,-28968.0,186742.0
17587.321533203125,174.0,49291.0,-28631.0,187079.0
17600.66259765625,175.0,48710.0,-28300.0,187410.0
17614.00341796875,176.0,48131.0,-27975.0,187735.0
17627.344482421875,177.0,47559.0,-27657.0,188053.0
17640.685302734375,178.0,46991.0,-27342.0,188368.0
17654.0263671875,179.0,46432.0,-27026.0,188684.0
17667.3671875,180.0,45882.0,-26710.0,189000.0
17680.7080078125,181.0,45343.0,-26394.0,189316.0
17694.049072265625,182.0,44816.0,-26081.0,189629.0
17707.389892578125,183.0,44297.0,-25771.0,189939.0
17720.73095703125,184.0,43786.0,-25466.0,190244.0
17734.07177734375,185.0,43281.0,-25165.0,190545.0
17747.412841796875,186.0,42780.0,-24865.0,190845.0
17760.753662109375,187.0,42285.0,-24570.0,191140.0
17774.0947265625,188.0,41795.0,-24278.0,191432.0
17787.435546875,189.0,41310.0,-23988.0,191722.0
17800.7763671875,190.0,40829.0,-23702.0,192008.0
17814.117431640625,191.0,40354.0,-23421.0,192289.0
17827.458251953125,192.0,39884.0,-23146.0,192564.0
17840.79931640625,193.0,39418.0,-22875.0,192835.0
17854.14013671875,194.0,38954.0,-22609.0,193101.0
17867.481201171875,195.0,38493.0,-22350.0,193360.0
17880.822021484375,196.0,38037.0,-22097.0,193613.0
17894.1630859375,197.0,37586.0,-21846.0,193864.0
17907.50390625,198.0,37142.0,-21598.0,194112.0
17920.8447265625,199.0,36705.0,-21351.0,194359.0
17934.185791015625,200.0,36272.0,-21103.0,194607.0
17947.526611328125,201.0,35846.0,-20858.0,194852.0
17960.86767578125,202.0,35425.0,-20614.0,195096.0
17974.20849609375,203.0,35010.0,-20372.0,195338.0
17987.549560546875,204.0,34601.0,-20132.0,195578.0
18000.890380859375,205.0,34197.0,-19894.0,195816.0
18014.2314453125,206.0,33799.0,-19658.0,196052.0
18027.572265625,207.0,33407.0,-19426.0,196284.0
18040.9130859375,208.0,33021.0,-19196.0,196514.0
18054.254150390625,209.0,32640.0,-18970.0,196740.0
18067.594970703125,210.0,32263.0,-18749.0,196961.0
18080.93603515625,211.0,31888.0,-18529.0,197181.0
18094.27685546875,212.0,31516.0,-18311.0,197399.0
18107.617919921875,213.0,31146.0,-18095.0,197615.0
18120.958740234375,214.0,30780.0,-17881.0,197829.0
18134.2998046875,215.0,30418.0,-17672.0,198038.0
18147.640625,216.0,30060.0,-17465.0,198245.0
18160.9814453125,217.0,29707.0,-17261.0,198449.0
18174.322509765625,218.0,29359.0,-17058.0,198652.0
18187.663330078125,219.0,29015.0,-16855.0,198855.0
18201.00439453125,220.0,28675.0,-16654.0,199056.0
18214.34521484375,221.0,28340.0,-16458.0,199252.0
18227.686279296875,222.0,28008.0,-16264.0,199446.0
18241.027099609375,223.0,27679.0,-16074.0,199636.0
18254.3681640625,224.0,27348.0,-15885.0,199825.0
18267.708984375,225.0,27019.0,-15702.0,200008.0
18281.0498046875,226.0,26691.0,-15522.0,200188.0
18294.390869140625,227.0,26367.0,-15345.0,200365.0
18307.731689453125,228.0,26049.0,-15171.0,200539.0
18321.07275390625,229.0,25736.0,-14997.0,200713.0
18334.41357421875,230.0,25430.0,-14821.0,200889.0
18347.754638671875,231.0,25130.0,-14645.0,201065.0
18361.095458984375,232.0,24836.0,-14470.0,201240.0
18374.4365234375,233.0,24548.0,-14297.0,201413.0
18387.77734375,234.0,24264.0,-14126.0,201584.0
18401.1181640625,235.0,23984.0,-13956.0,201754.0
18414.459228515625,236.0,23708.0,-13786.0,201924.0
18427.800048828125,237.0,23434.0,-13618.0,202092.0
18441.14111328125,238.0,23163.0,-13453.0,202257.0
18454.48193359375,239.0,22893.0,-13292.0,202418.0
18467.822998046875,240.0,22626.0,-13133.0,202577.0
18481.163818359375,241.0,22359.0,-12980.0,202730.0
18494.5048828125,242.0,22095.0,-12833.0,202877.0
18507.845703125,243.0,21832.0,-12691.0,203019.0
18521.1865234375,244.0,21571.0,-12552.0,203158.0
18534.527587890625,245.0,21313.0,-12412.0,203298.0
18547.868408203125,246.0,21059.0,-12269.0,203441.0
18561.20947265625,247.0,20811.0,-12125.0,203585.0
18574.55029296875,248.0,20568.0,-11982.0,203728.0
18587.891357421875,249.0,20331.0,-11840.0,203870.0
18601.232177734375,250.0,20098.0,-11700.0,204010.0
18614.5732421875,251.0,19867.0,-11561.0,204149.0
18627.9140625,252.0,19638.0,-11423.0,204287.0
18641.2548828125,253.0,19410.0,-11289.0,204421.0
18654.595947265625,254.0,19183.0,-11156.0,204554.0
18667.936767578125,255.0,18958.0,-11026.0,204684.0
18681.27783203125,256.0,18735.0,-10894.0,204816.0
18694.61865234375,257.0,18514.0,-10764.0,204946.0
18707.959716796875,258.0,18298.0,-10636.0,205074.0
18721.300537109375,259.0,18085.0,-10511.0,205199.0
18734.6416015625,260.0,17877.0,-10387.0,205323.0
18747.982421875,261.0,17672.0,-10265.0,205445.0
18761.3232421875,262.0,17467.0,-10144.0,205566.0
18774.664306640625,263.0,17263.0,-10023.0,205687.0
18788.005126953125,264.0,17059.0,-9903.0,205807.0
18801.34619140625,265.0,16858.0,-9786.0,205924.0
18814.68701171875,266.0,16661.0,-9669.0,206041.0
18828.028076171875,267.0,16467.0,-9553.0,206157.0
18841.368896484375,268.0,16277.0,-9440.0,206270.0
18854.7099609375,269.0,16088.0,-9331.0,206379.0
18868.05078125,270.0,15900.0,-9222.0,206488.0
18881.3916015625,271.0,15712.0,-9116.0,206594.0
18894.732666015625,272.0,15524.0,-9014.0,206696.0
18908.073486328125,273.0,15334.0,-8915.0,206795.0
18921.41455078125,274.0,15141.0,-8817.0,206893.0
18934.75537109375,275.0,14949.0,-8721.0,206989.0
18948.096435546875,276.0,14761.0,-8624.0,207086.0
18961.437255859375,277.0,14580.0,-8525.0,207185.0
18974.7783203125,278.0,14404.0,-8424.0,207286.0
18988.119140625,279.0,14236.0,-8323.0,207387.0
19001.4599609375,280.0,14074.0,-8224.0,207486.0
19014.801025390625,281.0,13915.0,-8127.0,207583.0
19028.141845703125,282.0,13758.0,-8033.0,207677.0
19041.48291015625,283.0,13604.0,-7938.0,207772.0
19054.82373046875,284.0,13453.0,-7844.0,207866.0
19068.164794921875,285.0,13303.0,-7751.0,207959.0
19081.505615234375,286.0,13153.0,-7659.0,208051.0
19094.8466796875,287.0,13004.0,-7569.0,208141.0
19108.1875,288.0,12856.0,-7482.0,208228.0
19121.5283203125,289.0,12707.0,-7392.0,208318.0
19134.869384765625,290.0,12558.0,-7302.0,208408.0
19148.210205078125,291.0,12410.0,-7215.0,208495.0
19161.55126953125,292.0,12260.0,-7129.0,208581.0
19174.89208984375,293.0,12112.0,-7048.0,208662.0
19188.233154296875,294.0,11964.0,-6967.0,208743.0
19201.573974609375,295.0,11819.0,-6887.0,208823.0
19214.9150390625,296.0,11678.0,-6808.0,208902.0
19228.255859375,297.0,11540.0,-6728.0,208982.0
19241.5966796875,298.0,11405.0,-6648.0,209062.0
19254.937744140625,299.0,11272.0,-6570.0,209140.0
19268.278564453125,300.0,11142.0,-6492.0,209218.0
19281.61962890625,301.0,11015.0,-6416.0,209294.0
19294.96044921875,302.0,10890.0,-6339.0,209371.0
19308.301513671875,303.0,10766.0,-6262.0,209448.0
19321.642333984375,304.0,10644.0,-6188.0,209522.0
19334.9833984375,305.0,10523.0,-6116.0,209594.0
19348.32421875,306.0,10401.0,-6045.0,209665.0
19361.6650390625,307.0,10278.0,-5975.0,209735.0
19375.006103515625,308.0,10156.0,-5907.0,209803.0
19388.346923828125,309.0,10037.0,-5842.0,209868.0
19401.68798828125,310.0,9918.0,-5778.0,209932.0
19415.02880859375,311.0,9802.0,-5717.0,209993.0
19428.369873046875,312.0,9685.0,-5656.0,210054.0
19441.710693359375,313.0,9569.0,-5595.0,210115.0
19455.0517578125,314.0,9454.0,-5535.0,210175.0
19468.392578125,315.0,9342.0,-5470.0,210240.0
19481.7333984375,316.0,9234.0,-5403.0,210307.0
19495.074462890625,317.0,9128.0,-5334.0,210376.0
19508.415283203125,318.0,9024.0,-5267.0,210443.0
19521.75634765625,319.0,8920.0,-5201.0,210509.0
19535.09716796875,320.0,8817.0,-5137.0,210573.0
19548.438232421875,321.0,8711.0,-5078.0,210632.0
19561.779052734375,322.0,8600.0,-5024.0,210686.0
19575.1201171875,323.0,8486.0,-4972.0,210738.0
19588.4609375,324.0,8374.0,-4921.0,210789.0
19601.8017578125,325.0,8266.0,-4870.0,210840.0
19615.142822265625,326.0,8162.0,-4814.0,210896.0
19628.483642578125,327.0,8063.0,-4755.0,210955.0
19641.82470703125,328.0,7971.0,-4698.0,211012.0
19655.16552734375,329.0,7883.0,-4639.0,211071.0
19668.506591796875,330.0,7796.0,-4581.0,211129.0
19681.847412109375,331.0,7711.0,-4521.0,211189.0
19695.1884765625,332.0,7626.0,-4461.0,211249.0
19708.529296875,333.0,7542.0,-4402.0,211308.0
19721.8701171875,334.0,7458.0,-4346.0,211364.0
19735.211181640625,335.0,7372.0,-4293.0,211417.0
19748.552001953125,336.0,7287.0,-4245.0,211465.0
19761.89306640625,337.0,7201.0,-4200.0,211510.0
19775.23388671875,338.0,7116.0,-4155.0,211555.0
19788.574951171875,339.0,7030.0,-4110.0,211600.0
19801.915771484375,340.0,6944.0,-4064.0,211646.0
19815.2568359375,341.0,6860.0,-4018.0,211692.0
19828.59765625,342.0,6776.0,-3970.0,211740.0
19841.9384765625,343.0,6690.0,-3922.0,211788.0
19855.279541015625,344.0,6606.0,-3876.0,211834.0
19868.620361328125,345.0,6521.0,-3832.0,211878.0
19881.96142578125,346.0,6441.0,-3789.0,211921.0
19895.30224609375,347.0,6361.0,-3744.0,211966.0
19908.643310546875,348.0,6287.0,-3700.0,212010.0
19921.984130859375,349.0,6215.0,-3655.0,212055.0
19935.3251953125,350.0,6145.0,-3612.0,212098.0
19948.666015625,351.0,6076.0,-3569.0,212141.0
19962.0068359375,352.0,6009.0,-3526.0,212184.0
19975.347900390625,353.0,5943.0,-3482.0,212228.0
19988.688720703125,354.0,5875.0,-3438.0,212272.0
20002.02978515625,355.0,5807.0,-3395.0,212315.0
20015.37060546875,356.0,5741.0,-3355.0,212355.0
20028.711669921875,357.0,5675.0,-3318.0,212392.0
20042.052490234375,358.0,5608.0,-3284.0,212426.0
20055.3935546875,359.0,5540.0,-3248.0,212462.0
20068.734375,360.0,5471.0,-3212.0,212498.0
20082.0751953125,361.0,5406.0,-3176.0,212534.0
20095.416259765625,362.0,5344.0,-3136.0,212574.0
20108.757080078125,363.0,5286.0,-3098.0,212612.0
20122.09814453125,364.0,5227.0,-3059.0,212651.0
20135.43896484375,365.0,5168.0,-3023.0,212687.0
20148.780029296875,366.0,5105.0,-2988.0,212722.0
20162.120849609375,367.0,5041.0,-2953.0,212757.0
20175.4619140625,368.0,4975.0,-2920.0,212790.0
20188.802734375,369.0,4908.0,-2889.0,212821.0
20202.1435546875,370.0,4839.0,-2859.0,212851.0
20215.484619140625,371.0,4771.0,-2829.0,212881.0
20228.825439453125,372.0,4705.0,-2798.0,212912.0
20242.16650390625,373.0,4644.0,-2764.0,212946.0
20255.50732421875,374.0,4586.0,-2729.0,212981.0
20268.848388671875,375.0,4532.0,-2694.0,213016.0
20282.189208984375,376.0,4481.0,-2662.0,213048.0
20295.5302734375,377.0,4434.0,-2631.0,213079.0
20308.87109375,378.0,4388.0,-2599.0,213111.0
20322.2119140625,379.0,4341.0,-2567.0,213143.0
20335.552978515625,380.0,4297.0,-2534.0,213176.0
20348.893798828125,381.0,4252.0,-2501.0,213209.0
20362.23486328125,382.0,4208.0,-2466.0,213244.0
20375.57568359375,383.0,4164.0,-2432.0,213278.0
20388.916748046875,384.0,4119.0,-2402.0,213308.0
20402.257568359375,385.0,4075.0,-2374.0,213336.0
20415.5986328125,386.0,4029.0,-2347.0,213363.0
20428.939453125,387.0,3982.0,-2321.0,213389.0
20442.2802734375,388.0,3934.0,-2296.0,213414.0
20455.621337890625,389.0,3886.0,-2271.0,213439.0
20468.962158203125,390.0,3841.0,-2248.0,213462.0
20482.30322265625,391.0,3795.0,-2223.0,213487.0
20495.64404296875,392.0,3749.0,-2199.0,213511.0
20508.985107421875,393.0,3705.0,-2174.0,213536.0
20522.325927734375,394.0,3662.0,-2150.0,213560.0
20535.6669921875,395.0,3619.0,-2124.0,213586.0
20549.0078125,396.0,3576.0,-2100.0,213610.0
20562.3486328125,397.0,3533.0,-2074.0,213636.0
20575.689697265625,398.0,3492.0,-2048.0,213662.0
20589.030517578125,399.0,3452.0,-2020.0,213690.0
20602.37158203125,400.0,3413.0,-1993.0,213717.0
20615.71240234375,401.0,3374.0,-1970.0,213740.0
20629.053466796875,402.0,3336.0,-1948.0,213762.0
20642.394287109375,403.0,3301.0,-1923.0,213787.0
20655.7353515625,404.0,3267.0,-1897.0,213813.0
20669.076171875,405.0,3232.0,-1871.0,213839.0
20682.4169921875,406.0,3197.0,-1846.0,213864.0
20695.758056640625,407.0,3160.0,-1824.0,213886.0
20709.098876953125,408.0,3123.0,-1802.0,213908.0
20722.43994140625,409.0,3087.0,-1782.0,213928.0
20735.78076171875,410.0,3053.0,-1760.0,213950.0
20749.121826171875,411.0,3021.0,-1740.0,213970.0
20762.462646484375,412.0,2990.0,-1718.0,213992.0
20775.8037109375,413.0,2960.0,-1698.0,214012.0
20789.14453125,414.0,2930.0,-1678.0,214032.0
20802.4853515625,415.0,2898.0,-1658.0,214052.0
20815.826416015625,416.0,2863.0,-1641.0,214069.0
20829.167236328125,417.0,2825.0,-1625.0,214085.0
20842.50830078125,418.0,2783.0,-1611.0,214099.0
20855.84912109375,419.0,2740.0,-1599.0,214111.0
20869.190185546875,420.0,2697.0,-1587.0,214123.0
20882.531005859375,421.0,2658.0,-1574.0,214136.0
20895.8720703125,422.0,2624.0,-1558.0,214152.0
20909.212890625,423.0,2594.0,-1540.0,214170.0
20922.5537109375,424.0,2567.0,-1521.0,214189.0
20935.894775390625,425.0,2540.0,-1501.0,214209.0
20949.235595703125,426.0,2514.0,-1481.0,214229.0
20962.57666015625,427.0,2491.0,-1460.0,214250.0
20975.91748046875,428.0,2466.0,-1438.0,214272.0
20989.258544921875,429.0,2442.0,-1418.0,214292.0
21002.599365234375,430.0,2418.0,-1401.0,214309.0
21015.9404296875,431.0,2393.0,-1387.0,214323.0
21029.28125,432.0,2366.0,-1374.0,214336.0
21042.6220703125,433.0,2338.0,-1362.0,214348.0
21055.963134765625,434.0,2306.0,-1349.0,214361.0
21069.303955078125,435.0,2274.0,-1331.0,214379.0
21082.64501953125,436.0,2243.0,-1311.0,214399.0
21095.98583984375,437.0,2213.0,-1291.0,214419.0
21109.326904296875,438.0,2184.0,-1274.0,214436.0
21122.667724609375,439.0,2155.0,-1257.0,214453.0
21136.0087890625,440.0,2127.0,-1242.0,214468.0
21149.349609375,441.0,2099.0,-1228.0,214482.0
21162.6904296875,442.0,2072.0,-1213.0,214497.0
21176.031494140625,443.0,2047.0,-1199.0,214511.0
21189.372314453125,444.0,2023.0,-1187.0,214523.0
21202.71337890625,445.0,1999.0,-1175.0,214535.0
21216.05419921875,446.0,1978.0,-1162.0,214548.0
21229.395263671875,447.0,1959.0,-1150.0,214560.0
21242.736083984375,448.0,1939.0,-1136.0,214574.0
21256.0771484375,449.0,1917.0,-1122.0,214588.0
21269.41796875,450.0,1897.0,-1105.0,214605.0
21282.7587890625,451.0,1876.0,-1088.0,214622.0
21296.099853515625,452.0,1856.0,-1072.0,214638.0
21309.440673828125,453.0,1836.0,-1056.0,214654.0
21322.78173828125,454.0,1813.0,-1044.0,214666.0
21336.12255859375,455.0,1792.0,-1033.0,214677.0
21349.463623046875,456.0,1769.0,-1021.0,214689.0
21362.804443359375,457.0,1745.0,-1008.0,214702.0
21376.1455078125,458.0,1721.0,-995.0,214715.0
21389.486328125,459.0,1697.0,-982.0,214728.0
21402.8271484375,460.0,1677.0,-972.0,214738.0
21416.168212890625,461.0,1658.0,-960.0,214750.0
21429.509033203125,462.0,1641.0,-950.0,214760.0
21442.85009765625,463.0,1622.0,-940.0,214770.0
21456.19091796875,464.0,1604.0,-931.0,214779.0
21469.531982421875,465.0,1586.0,-922.0,214788.0
21482.872802734375,466.0,1566.0,-911.0,214799.0
21496.2138671875,467.0,1544.0,-900.0,214810.0
21509.5546875,468.0,1522.0,-891.0,214819.0
21522.8955078125,469.0,1498.0,-883.0,214827.0
21536.236572265625,470.0,1472.0,-876.0,214834.0
21549.577392578125,471.0,1447.0,-870.0,214840.0
21562.91845703125,472.0,1423.0,-864.0,214846.0
21576.25927734375,473.0,1403.0,-857.0,214853.0
21589.600341796875,474.0,1385.0,-851.0,214859.0
21602.941162109375,475.0,1370.0,-844.0,214866.0
21616.2822265625,476.0,1358.0,-836.0,214874.0
21629.623046875,477.0,1348.0,-824.0,214886.0
21642.9638671875,478.0,1337.0,-810.0,214900.0
21656.304931640625,479.0,1327.0,-796.0,214914.0
21669.645751953125,480.0,1317.0,-779.0,214931.0
21682.98681640625,481.0,1307.0,-764.0,214946.0
21696.32763671875,482.0,1296.0,-749.0,214961.0
21709.668701171875,483.0,1285.0,-737.0,214973.0
21723.009521484375,484.0,1273.0,-726.0,214984.0
21736.3505859375,485.0,1260.0,-714.0,214996.0
21749.69140625,486.0,1245.0,-704.0,215006.0
21763.0322265625,487.0,1229.0,-697.0,215013.0
21776.373291015625,488.0,1214.0,-691.0,215019.0
21789.714111328125,489.0,1198.0,-689.0,215021.0
21803.05517578125,490.0,1183.0,-686.0,215024.0
21816.39599609375,491.0,1167.0,-683.0,215027.0
21829.737060546875,492.0,1151.0,-678.0,215032.0
21843.077880859375,493.0,1137.0,-672.0,215038.0
21856.4189453125,494.0,1121.0,-664.0,215046.0
21869.759765625,495.0,1107.0,-656.0,215054.0
21883.1005859375,496.0,1094.0,-646.0,215064.0
21896.441650390625,497.0,1083.0,-637.0,215073.0
21909.782470703125,498.0,1071.0,-629.0,215081.0
21923.12353515625,499.0,1060.0,-619.0,215091.0
21936.46435546875,500.0,1049.0,-611.0,215099.0
21949.805419921875,501.0,1038.0,-603.0,215107.0
21963.146240234375,502.0,1025.0,-597.0,215113.0
21976.4873046875,503.0,1012.0,-590.0,215120.0
21989.828125,504.0,1001.0,-584.0,215126.0
22003.1689453125,505.0,988.0,-577.0,215133.0
22016.510009765625,506.0,977.0,-569.0,215141.0
22029.850830078125,507.0,969.0,-562.0,215148.0
22043.19189453125,508.0,962.0,-554.0,215156.0
22056.53271484375,509.0,956.0,-548.0,215162.0
22069.873779296875,510.0,949.0,-542.0,215168.0
22083.214599609375,511.0,941.0,-538.0,215172.0
22096.5556640625,512.0,932.0,-536.0,215174.0
22109.896484375,513.0,920.0,-531.0,215179.0
22123.2373046875,514.0,908.0,-525.0,215185.0
22136.578369140625,515.0,895.0,-517.0,215193.0
22149.919189453125,516.0,880.0,-510.0,215200.0
22163.26025390625,517.0,869.0,-504.0,215206.0
22176.60107421875,518.0,860.0,-499.0,215211.0
22189.942138671875,519.0,851.0,-495.0,215215.0
22203.282958984375,520.0,839.0,-490.0,215220.0
22216.6240234375,521.0,824.0,-487.0,215223.0
22229.96484375,522.0,806.0,-485.0,215225.0
22243.3056640625,523.0,786.0,-483.0,215227.0
22256.646728515625,524.0,766.0,-480.0,215230.0
22269.987548828125,525.0,749.0,-479.0,215231.0
22283.32861328125,526.0,736.0,-475.0,215235.0
22296.66943359375,527.0,723.0,-470.0,215240.0
22310.010498046875,528.0,713.0,-462.0,215248.0
22323.351318359375,529.0,705.0,-456.0,215254.0
22336.6923828125,530.0,698.0,-449.0,215261.0
22350.033203125,531.0,693.0,-445.0,215265.0
22363.3740234375,532.0,690.0,-441.0,215269.0
22376.715087890625,533.0,689.0,-436.0,215274.0
22390.055908203125,534.0,687.0,-432.0,215278.0
22403.39697265625,535.0,684.0,-426.0,215284.0
22416.73779296875,536.0,681.0,-421.0,215289.0
22430.078857421875,537.0,678.0,-417.0,215293.0
22443.419677734375,538.0,673.0,-409.0,215301.0
22456.7607421875,539.0,665.0,-400.0,215310.0
22470.1015625,540.0,653.0,-393.0,215317.0
22483.4423828125,541.0,640.0,-388.0,215322.0
22496.783447265625,542.0,627.0,-382.0,215328.0
22510.124267578125,543.0,613.0,-378.0,215332.0
22523.46533203125,544.0,601.0,-375.0,215335.0
22536.80615234375,545.0,592.0,-374.0,215336.0
22550.147216796875,546.0,585.0,-372.0,215338.0
22563.488037109375,547.0,581.0,-370.0,215340.0
22576.8291015625,548.0,579.0,-368.0,215342.0
22590.169921875,549.0,578.0,-362.0,215348.0
22603.5107421875,550.0,578.0,-355.0,215355.0
22616.851806640625,551.0,578.0,-347.0,215363.0
22630.192626953125,552.0,578.0,-339.0,215371.0
22643.53369140625,553.0,575.0,-333.0,215377.0
22656.87451171875,554.0,572.0,-327.0,215383.0
22670.215576171875,555.0,569.0,-322.0,215388.0
22683.556396484375,556.0,566.0,-318.0,215392.0
22696.8974609375,557.0,563.0,-317.0,215393.0
22710.23828125,558.0,560.0,-315.0,215395.0
22723.5791015625,559.0,556.0,-309.0,215401.0
22736.920166015625,560.0,550.0,-303.0,215407.0
22750.260986328125,561.0,543.0,-297.0,215413.0
22763.60205078125,562.0,536.0,-291.0,215419.0
22776.94287109375,563.0,526.0,-287.0,215423.0
22790.283935546875,564.0,517.0,-284.0,215426.0
22803.624755859375,565.0,510.0,-281.0,215429.0
22816.9658203125,566.0,502.0,-280.0,215430.0
22830.306640625,567.0,494.0,-278.0,215432.0
22843.6474609375,568.0,486.0,-278.0,215432.0
22856.988525390625,569.0,480.0,-277.0,215433.0
22870.329345703125,570.0,472.0,-277.0,215433.0
22883.67041015625,571.0,462.0,-276.0,215434.0
22897.01123046875,572.0,448.0,-276.0,215434.0
22910.352294921875,573.0,433.0,-274.0,215436.0
22923.693115234375,574.0,417.0,-274.0,215436.0
22937.0341796875,575.0,402.0,-275.0,215435.0
22950.375,576.0,390.0,-276.0,215434.0
22963.7158203125,577.0,384.0,-274.0,215436.0
22977.056884765625,578.0,380.0,-270.0,215440.0
22990.397705078125,579.0,379.0,-266.0,215444.0
23003.73876953125,580.0,378.0,-260.0,215450.0
23017.07958984375,581.0,377.0,-254.0,215456.0
23030.420654296875,582.0,376.0,-248.0,215462.0
23043.761474609375,583.0,374.0,-243.0,215467.0
23057.1025390625,584.0,373.0,-239.0,215471.0
23070.443359375,585.0,370.0,-237.0,215473.0
23083.7841796875,586.0,369.0,-237.0,215473.0
23097.125244140625,587.0,369.0,-237.0,215473.0
23110.466064453125,588.0,368.0,-232.0,215478.0
23123.80712890625,589.0,369.0,-225.0,215485.0
23137.14794921875,590.0,369.0,-220.0,215490.0
23150.489013671875,591.0,365.0,-215.0,215495.0
23163.829833984375,592.0,361.0,-211.0,215499.0
23177.1708984375,593.0,355.0,-210.0,215500.0
23190.51171875,594.0,348.0,-210.0,215500.0
23203.8525390625,595.0,341.0,-208.0,215502.0
23217.193603515625,596.0,335.0,-206.0,215504.0
23230.534423828125,597.0,330.0,-205.0,215505.0
23243.87548828125,598.0,325.0,-206.0,215504.0
23257.21630859375,599.0,320.0,-205.0,215505.0
23270.557373046875,600.0,315.0,-204.0,215506.0
23283.898193359375,601.0,313.0,-201.0,215509.0
23297.2392578125,602.0,310.0,-194.0,215516.0
23310.580078125,603.0,308.0,-185.0,215525.0
23323.9208984375,604.0,308.0,-176.0,215534.0
23337.261962890625,605.0,308.0,-168.0,215542.0
23350.602783203125,606.0,308.0,-159.0,215551.0
23363.94384765625,607.0,307.0,-151.0,215559.0
23377.28466796875,608.0,305.0,-147.0,215563.0
23390.625732421875,609.0,303.0,-144.0,215566.0
23403.966552734375,610.0,299.0,-145.0,215565.0
23417.3076171875,611.0,297.0,-145.0,215565.0
23430.6484375,612.0,293.0,-145.0,215565.0
23443.9892578125,613.0,290.0,-146.0,215564.0
23457.330322265625,614.0,287.0,-146.0,215564.0
23470.671142578125,615.0,284.0,-146.0,215564.0
23484.01220703125,616.0,282.0,-146.0,215564.0
23497.35302734375,617.0,280.0,-145.0,215565.0
23510.694091796875,618.0,276.0,-143.0,215567.0
23524.034912109375,619.0,272.0,-141.0,215569.0
23537.3759765625,620.0,268.0,-140.0,215570.0
23550.716796875,621.0,265.0,-138.0,215572.0
23564.0576171875,622.0,261.0,-136.0,215574.0
23577.398681640625,623.0,259.0,-135.0,215575.0
23590.739501953125,624.0,257.0,-132.0,215578.0
23604.08056640625,625.0,255.0,-131.0,215579.0
23617.42138671875,626.0,250.0,-131.0,215579.0
23630.762451171875,627.0,241.0,-134.0,215576.0
23644.103271484375,628.0,230.0,-137.0,215573.0
23657.4443359375,629.0,217.0,-140.0,215570.0
23670.78515625,630.0,206.0,-144.0,215566.0
23684.1259765625,631.0,195.0,-146.0,215564.0
23697.467041015625,632.0,188.0,-147.0,215563.0
23710.807861328125,633.0,185.0,-148.0,215562.0
23724.14892578125,634.0,185.0,-146.0,215564.0
23737.48974609375,635.0,185.0,-140.0,215570.0
23750.830810546875,636.0,186.0,-135.0,215575.0
23764.171630859375,637.0,188.0,-132.0,215578.0
23777.5126953125,638.0,191.0,-127.0,215583.0
23790.853515625,639.0,194.0,-122.0,215588.0
23804.1943359375,640.0,196.0,-115.0,215595.0
23817.535400390625,641.0,199.0,-111.0,215599.0
23830.876220703125,642.0,199.0,-108.0,215602.0
23844.21728515625,643.0,197.0,-106.0,215604.0
23857.55810546875,644.0,196.0,-104.0,215606.0
23870.899169921875,645.0,194.0,-102.0,215608.0
23884.239990234375,646.0,189.0,-100.0,215610.0
23897.5810546875,647.0,185.0,-100.0,215610.0
23910.921875,648.0,181.0,-100.0,215610.0
23924.2626953125,649.0,178.0,-102.0,215608.0
23937.603759765625,650.0,176.0,-104.0,215606.0
23950.944580078125,651.0,173.0,-105.0,215605.0
23964.28564453125,652.0,170.0,-106.0,215604.0
23977.62646484375,653.0,165.0,-104.0,215606.0
23990.967529296875,654.0,161.0,-102.0,215608.0
24004.308349609375,655.0,159.0,-100.0,215610.0
24017.6494140625,656.0,158.0,-98.0,215612.0
24030.990234375,657.0,158.0,-95.0,215615.0
24044.3310546875,658.0,159.0,-90.0,215620.0
24057.672119140625,659.0,159.0,-86.0,215624.0
24071.012939453125,660.0,158.0,-84.0,215626.0
24084.35400390625,661.0,159.0,-84.0,215626.0
24097.69482421875,662.0,159.0,-86.0,215624.0
24111.035888671875,663.0,157.0,-87.0,215623.0
24124.376708984375,664.0,155.0,-88.0,215622.0
24137.7177734375,665.0,154.0,-89.0,215621.0
24151.05859375,666.0,153.0,-88.0,215622.0
24164.3994140625,667.0,151.0,-87.0,215623.0
24177.740478515625,668.0,150.0,-88.0,215622.0
24191.081298828125,669.0,151.0,-90.0,215620.0
24204.42236328125,670.0,150.0,-92.0,215618.0
24217.76318359375,671.0,150.0,-93.0,215617.0
24231.104248046875,672.0,151.0,-94.0,215616.0
24244.445068359375,673.0,152.0,-94.0,215616.0
24257.7861328125,674.0,152.0,-92.0,215618.0
24271.126953125,675.0,151.0,-89.0,215621.0
24284.4677734375,676.0,152.0,-84.0,215626.0
24297.808837890625,677.0,153.0,-80.0,215630.0
24311.149658203125,678.0,154.0,-76.0,215634.0
24324.49072265625,679.0,153.0,-73.0,215637.0
24337.83154296875,680.0,147.0,-70.0,215640.0
24351.172607421875,681.0,137.0,-69.0,215641.0
24364.513427734375,682.0,125.0,-70.0,215640.0
24377.8544921875,683.0,111.0,-74.0,215636.0
24391.1953125,684.0,100.0,-80.0,215630.0
24404.5361328125,685.0,90.0,-86.0,215624.0
24417.877197265625,686.0,83.0,-91.0,215619.0
24431.218017578125,687.0,78.0,-94.0,215616.0
24444.55908203125,688.0,75.0,-93.0,215617.0
24457.89990234375,689.0,76.0,-90.0,215620.0
24471.240966796875,690.0,79.0,-87.0,215623.0
24484.581787109375,691.0,84.0,-83.0,215627.0
24497.9228515625,692.0,90.0,-80.0,215630.0
24511.263671875,693.0,99.0,-77.0,215633.0
24524.6044921875,694.0,107.0,-75.0,215635.0
24537.945556640625,695.0,113.0,-75.0,215635.0
24551.286376953125,696.0,114.0,-73.0,215637.0
24564.62744140625,697.0,113.0,-69.0,215641.0
24577.96826171875,698.0,110.0,-63.0,215647.0
24591.309326171875,699.0,106.0,-56.0,215654.0
24604.650146484375,700.0,100.0,-53.0,215657.0
24617.9912109375,701.0,94.0,-52.0,215658.0
24631.33203125,702.0,86.0,-54.0,215656.0
24644.6728515625,703.0,74.0,-57.0,215653.0
24658.013916015625,704.0,64.0,-59.0,215651.0
24671.354736328125,705.0,56.0,-61.0,215649.0
24684.69580078125,706.0,51.0,-63.0,215647.0
24698.03662109375,707.0,48.0,-63.0,215647.0
24711.377685546875,708.0,47.0,-62.0,215648.0
24724.718505859375,709.0,48.0,-62.0,215648.0
24738.0595703125,710.0,52.0,-62.0,215648.0
24751.400390625,711.0,55.0,-58.0,215652.0
24764.7412109375,712.0,57.0,-52.0,215658.0
24778.082275390625,713.0,59.0,-46.0,215664.0
24791.423095703125,714.0,62.0,-41.0,215669.0
24804.76416015625,715.0,65.0,-38.0,215672.0
24818.10498046875,716.0,66.0,-34.0,215676.0
24831.446044921875,717.0,69.0,-31.0,215679.0
24844.786865234375,718.0,71.0,-27.0,215683.0
24858.1279296875,719.0,73.0,-26.0,215684.0
24871.46875,720.0,75.0,-26.0,215684.0
24884.8095703125,721.0,80.0,-29.0,215681.0
24898.150634765625,722.0,85.0,-33.0,215677.0
24911.491455078125,723.0,88.0,-38.0,215672.0
24924.83251953125,724.0,89.0,-38.0,215672.0
24938.17333984375,725.0,90.0,-38.0,215672.0
24951.514404296875,726.0,90.0,-35.0,215675.0
24964.855224609375,727.0,90.0,-33.0,215677.0
24978.1962890625,728.0,90.0,-32.0,215678.0
24991.537109375,729.0,91.0,-30.0,215680.0
25004.8779296875,730.0,93.0,-29.0,215681.0
25018.218994140625,731.0,93.0,-28.0,215682.0
25031.559814453125,732.0,92.0,-28.0,215682.0
25044.90087890625,733.0,91.0,-29.0,215681.0
25058.24169921875,734.0,89.0,-29.0,215681.0
25071.582763671875,735.0,86.0,-29.0,215681.0
25084.923583984375,736.0,83.0,-30.0,215680.0
25098.2646484375,737.0,77.0,-33.0,215677.0
25111.60546875,738.0,67.0,-40.0,215670.0
25124.9462890625,739.0,56.0,-47.0,215663.0
25138.287353515625,740.0,45.0,-53.0,215657.0
25151.628173828125,741.0,36.0,-58.0,215652.0
25164.96923828125,742.0,30.0,-62.0,215648.0
25178.31005859375,743.0,27.0,-63.0,215647.0
25191.651123046875,744.0,28.0,-62.0,215648.0
25204.991943359375,745.0,30.0,-59.0,215651.0
25218.3330078125,746.0,33.0,-56.0,215654.0
25231.673828125,747.0,37.0,-53.0,215657.0
25245.0146484375,748.0,40.0,-50.0,215660.0
25258.355712890625,749.0,44.0,-50.0,215660.0
25271.696533203125,750.0,45.0,-50.0,215660.0
25285.03759765625,751.0,48.0,-52.0,215658.0
25298.37841796875,752.0,51.0,-54.0,215656.0
25311.719482421875,753.0,56.0,-54.0,215656.0
25325.060302734375,754.0,61.0,-52.0,215658.0
25338.4013671875,755.0,64.0,-49.0,215661.0
25351.7421875,756.0,64.0,-46.0,215664.0
25365.0830078125,757.0,62.0,-42.0,215668.0
25378.424072265625,758.0,59.0,-39.0,215671.0
25391.764892578125,759.0,57.0,-37.0,215673.0
25405.10595703125,760.0,54.0,-38.0,215672.0
25418.44677734375,761.0,49.0,-41.0,215669.0
25431.787841796875,762.0,45.0,-46.0,215664.0
25445.128662109375,763.0,42.0,-50.0,215660.0
25458.4697265625,764.0,42.0,-52.0,215658.0
25471.810546875,765.0,41.0,-52.0,215658.0
25485.1513671875,766.0,40.0,-51.0,215659.0
25498.492431640625,767.0,37.0,-51.0,215659.0
25511.833251953125,768.0,35.0,-51.0,215659.0
25525.17431640625,769.0,36.0,-52.0,215658.0
25538.51513671875,770.0,39.0,-50.0,215660.0
25551.856201171875,771.0,43.0,-47.0,215663.0
25565.197021484375,772.0,48.0,-45.0,215665.0
25578.5380859375,773.0,52.0,-42.0,215668.0
25591.87890625,774.0,55.0,-39.0,215671.0
25605.2197265625,775.0,56.0,-35.0,215675.0
25618.560791015625,776.0,55.0,-33.0,215677.0
25631.901611328125,777.0,55.0,-32.0,215678.0
25645.24267578125,778.0,55.0,-31.0,215679.0
25658.58349609375,779.0,55.0,-30.0,215680.0
25671.924560546875,780.0,55.0,-28.0,215682.0
25685.265380859375,781.0,56.0,-26.0,215684.0
25698.6064453125,782.0,56.0,-22.0,215688.0
25711.947265625,783.0,56.0,-18.0,215692.0
25725.2880859375,784.0,56.0,-15.0,215695.0
25738.629150390625,785.0,56.0,-13.0,215697.0
25751.969970703125,786.0,55.0,-13.0,215697.0
25765.31103515625,787.0,54.0,-14.0,215696.0
25778.65185546875,788.0,56.0,-15.0,215695.0
25791.992919921875,789.0,58.0,-13.0,215697.0
25805.333740234375,790.0,59.0,-12.0,215698.0
25818.6748046875,791.0,62.0,-10.0,215700.0
25832.015625,792.0,62.0,-9.0,215701.0
25845.3564453125,793.0,58.0,-9.0,215701.0
25858.697509765625,794.0,49.0,-12.0,215698.0
25872.038330078125,795.0,36.0,-18.0,215692.0
25885.37939453125,796.0,24.0,-22.0,215688.0
25898.72021484375,797.0,14.0,-25.0,215685.0
25912.061279296875,798.0,7.0,-26.0,215684.0
25925.402099609375,799.0,5.0,-26.0,215684.0
25938.7431640625,800.0,6.0,-26.0,215684.0
25952.083984375,801.0,9.0,-26.0,215684.0
25965.4248046875,802.0,14.0,-25.0,215685.0
25978.765869140625,803.0,20.0,-23.0,215687.0
25992.106689453125,804.0,27.0,-21.0,215689.0
26005.44775390625,805.0,33.0,-18.0,215692.0
26018.78857421875,806.0,39.0,-14.0,215696.0
26032.129638671875,807.0,43.0,-8.0,215702.0
26045.470458984375,808.0,46.0,-3.0,215707.0
26058.8115234375,809.0,47.0,0.0,215710.0
26072.15234375,810.0,50.0,1.0,215711.0
26085.4931640625,811.0,53.0,0.0,215710.0
26098.834228515625,812.0,55.0,-1.0,215709.0
26112.175048828125,813.0,53.0,-3.0,215707.0
26125.51611328125,814.0,50.0,-6.0,215704.0
26138.85693359375,815.0,45.0,-11.0,215699.0
26152.197998046875,816.0,39.0,-15.0,215695.0
26165.538818359375,817.0,35.0,-19.0,215691.0
26178.8798828125,818.0,31.0,-20.0,215690.0
26192.220703125,819.0,28.0,-18.0,215692.0
26205.5615234375,820.0,26.0,-16.0,215694.0
26218.902587890625,821.0,24.0,-13.0,215697.0
26232.243408203125,822.0,25.0,-11.0,215699.0
26245.58447265625,823.0,28.0,-10.0,215700.0
26258.92529296875,824.0,32.0,-9.0,215701.0
26272.266357421875,825.0,35.0,-9.0,215701.0
26285.607177734375,826.0,38.0,-10.0,215700.0
26298.9482421875,827.0,40.0,-11.0,215699.0
26312.2890625,828.0,44.0,-11.0,215699.0
26325.6298828125,829.0,46.0,-11.0,215699.0
26338.970947265625,830.0,48.0,-10.0,215700.0
26352.311767578125,831.0,49.0,-6.0,215704.0
26365.65283203125,832.0,51.0,-1.0,215709.0
26378.99365234375,833.0,51.0,3.0,215713.0
26392.334716796875,834.0,50.0,4.0,215714.0
26405.675537109375,835.0,50.0,3.0,215713.0
26419.0166015625,836.0,48.0,0.0,215710.0
26432.357421875,837.0,45.0,-4.0,215706.0
26445.6982421875,838.0,41.0,-7.0,215703.0
26459.039306640625,839.0,40.0,-9.0,215701.0
26472.380126953125,840.0,41.0,-7.0,215703.0
26485.72119140625,841.0,45.0,-4.0,215706.0
26499.06201171875,842.0,49.0,-1.0,215709.0
26512.403076171875,843.0,55.0,0.0,215710.0
26525.743896484375,844.0,56.0,-2.0,215708.0
26539.0849609375,845.0,51.0,-6.0,215704.0
26552.42578125,846.0,40.0,-13.0,215697.0
26565.7666015625,847.0,24.0,-21.0,215689.0
26579.107666015625,848.0,5.0,-29.0,215681.0
26592.448486328125,849.0,-12.0,-33.0,215677.0
26605.78955078125,850.0,-25.0,-36.0,215674.0
26619.13037109375,851.0,-30.0,-36.0,215674.0
26632.471435546875,852.0,-30.0,-34.0,215676.0
26645.812255859375,853.0,-29.0,-32.0,215678.0
26659.1533203125,854.0,-23.0,-29.0,215681.0
26672.494140625,855.0,-16.0,-27.0,215683.0
26685.8349609375,856.0,-9.0,-26.0,215684.0
26699.176025390625,857.0,-2.0,-21.0,215689.0
26712.516845703125,858.0,5.0,-16.0,215694.0
26725.85791015625,859.0,11.0,-9.0,215701.0
26739.19873046875,860.0,15.0,-2.0,215708.0
26752.539794921875,861.0,17.0,2.0,215712.0
26765.880615234375,862.0,18.0,5.0,215715.0
26779.2216796875,863.0,19.0,6.0,215716.0
26792.5625,864.0,22.0,7.0,215717.0
26805.9033203125,865.0,23.0,5.0,215715.0
26819.244384765625,866.0,21.0,2.0,215712.0
26832.585205078125,867.0,15.0,-4.0,215706.0
26845.92626953125,868.0,9.0,-11.0,215699.0
26859.26708984375,869.0,2.0,-17.0,215693.0
26872.608154296875,870.0,-4.0,-23.0,215687.0
26885.948974609375,871.0,-7.0,-25.0,215685.0
26899.2900390625,872.0,-7.0,-26.0,215684.0
26912.630859375,873.0,-6.0,-26.0,215684.0
26925.9716796875,874.0,-7.0,-22.0,215688.0
26939.312744140625,875.0,-7.0,-18.0,215692.0
26952.653564453125,876.0,-7.0,-14.0,215696.0
26965.99462890625,877.0,-6.0,-12.0,215698.0
26979.33544921875,878.0,-4.0,-11.0,215699.0
26992.676513671875,879.0,-2.0,-10.0,215700.0
27006.017333984375,880.0,2.0,-8.0,215702.0
27019.3583984375,881.0,6.0,-8.0,215702.0
27032.69921875,882.0,9.0,-8.0,215702.0
27046.0400390625,883.0,11.0,-6.0,215704.0
27059.381103515625,884.0,12.0,-3.0,215707.0
27072.721923828125,885.0,12.0,0.0,215710.0
27086.06298828125,886.0,13.0,3.0,215713.0
27099.40380859375,887.0,14.0,5.0,215715.0
27112.744873046875,888.0,15.0,8.0,215718.0
27126.085693359375,889.0,17.0,10.0,215720.0
27139.4267578125,890.0,18.0,11.0,215721.0
27152.767578125,891.0,16.0,13.0,215723.0
27166.1083984375,892.0,16.0,13.0,215723.0
27179.449462890625,893.0,17.0,13.0,215723.0
27192.790283203125,894.0,21.0,12.0,215722.0
27206.13134765625,895.0,25.0,11.0,215721.0
27219.47216796875,896.0,28.0,11.0,215721.0
27232.813232421875,897.0,32.0,9.0,215719.0
27246.154052734375,898.0,33.0,5.0,215715.0
27259.4951171875,899.0,28.0,-1.0,215709.0
27272.8359375,900.0,21.0,-8.0,215702.0
27286.1767578125,901.0,10.0,-18.0,215692.0
27299.517822265625,902.0,-2.0,-26.0,215684.0
27312.858642578125,903.0,-12.0,-33.0,215677.0
27326.19970703125,904.0,-17.0,-35.0,215675.0
27339.54052734375,905.0,-19.0,-36.0,215674.0
27352.881591796875,906.0,-19.0,-32.0,215678.0
27366.222412109375,907.0,-15.0,-28.0,215682.0
27379.5634765625,908.0,-9.0,-25.0,215685.0
27392.904296875,909.0,-4.0,-21.0,215689.0
27406.2451171875,910.0,3.0,-19.0,215691.0
27419.586181640625,911.0,11.0,-18.0,215692.0
27432.927001953125,912.0,20.0,-18.0,215692.0
27446.26806640625,913.0,26.0,-18.0,215692.0
27459.60888671875,914.0,32.0,-16.0,215694.0
27472.949951171875,915.0,38.0,-14.0,215696.0
27486.290771484375,916.0,41.0,-11.0,215699.0
27499.6318359375,917.0,44.0,-7.0,215703.0
27512.97265625,918.0,45.0,-3.0,215707.0
27526.3134765625,919.0,44.0,0.0,215710.0
27539.654541015625,920.0,38.0,1.0,215711.0
27552.995361328125,921.0,32.0,0.0,215710.0
27566.33642578125,922.0,24.0,-1.0,215709.0
27579.67724609375,923.0,17.0,-3.0,215707.0
27593.018310546875,924.0,12.0,-5.0,215705.0
27606.359130859375,925.0,9.0,-9.0,215701.0
27619.7001953125,926.0,7.0,-12.0,215698.0
27633.041015625,927.0,6.0,-14.0,215696.0
27646.3818359375,928.0,9.0,-16.0,215694.0
27659.722900390625,929.0,13.0,-17.0,215693.0
27673.063720703125,930.0,16.0,-16.0,215694.0
27686.40478515625,931.0,19.0,-14.0,215696.0
27699.74560546875,932.0,23.0,-10.0,215700.0
27713.086669921875,933.0,25.0,-8.0,215702.0
27726.427490234375,934.0,24.0,-6.0,215704.0
27739.7685546875,935.0,23.0,-4.0,215706.0
27753.109375,936.0,23.0,-1.0,215709.0
27766.4501953125,937.0,22.0,4.0,215714.0
27779.791259765625,938.0,20.0,8.0,215718.0
27793.132080078125,939.0,20.0,10.0,215720.0
27806.47314453125,940.0,19.0,10.0,215720.0
27819.81396484375,941.0,17.0,9.0,215719.0
27833.155029296875,942.0,16.0,6.0,215716.0
27846.495849609375,943.0,15.0,3.0,215713.0
27859.8369140625,944.0,16.0,0.0,215710.0
27873.177734375,945.0,17.0,-1.0,215709.0
27886.5185546875,946.0,18.0,-2.0,215708.0
27899.859619140625,947.0,20.0,0.0,215710.0
27913.200439453125,948.0,22.0,3.0,215713.0
27926.54150390625,949.0,24.0,7.0,215717.0
27939.88232421875,950.0,25.0,11.0,215721.0
27953.223388671875,951.0,24.0,13.0,215723.0
27966.564208984375,952.0,17.0,11.0,215721.0
27979.9052734375,953.0,10.0,5.0,215715.0
27993.24609375,954.0,2.0,-1.0,215709.0
28006.5869140625,955.0,-5.0,-7.0,215703.0
28019.927978515625,956.0,-13.0,-11.0,215699.0
28033.268798828125,957.0,-18.0,-13.0,215697.0
28046.60986328125,958.0,-22.0,-11.0,215699.0
28059.95068359375,959.0,-22.0,-9.0,215701.0
28073.291748046875,960.0,-19.0,-6.0,215704.0
28086.632568359375,961.0,-14.0,-1.0,215709.0
28099.9736328125,962.0,-7.0,4.0,215714.0
28113.314453125,963.0,0.0,9.0,215719.0
28126.6552734375,964.0,7.0,11.0,215721.0
28139.996337890625,965.0,13.0,12.0,215722.0
28153.337158203125,966.0,19.0,12.0,215722.0
28166.67822265625,967.0,24.0,12.0,215722.0
28180.01904296875,968.0,27.0,11.0,215721.0
28193.360107421875,969.0,27.0,11.0,215721.0
28206.700927734375,970.0,27.0,10.0,215720.0
28220.0419921875,971.0,26.0,9.0,215719.0
28233.3828125,972.0,24.0,10.0,215720.0
28246.7236328125,973.0,21.0,12.0,215722.0
28260.064697265625,974.0,17.0,12.0,215722.0
28273.405517578125,975.0,11.0,9.0,215719.0
28286.74658203125,976.0,4.0,5.0,215715.0
28300.08740234375,977.0,-1.0,1.0,215711.0
28313.428466796875,978.0,-5.0,-2.0,215708.0
28326.769287109375,979.0,-7.0,-1.0,215709.0
28340.1103515625,980.0,-8.0,1.0,215711.0
28353.451171875,981.0,-7.0,4.0,215714.0
28366.7919921875,982.0,-6.0,6.0,215716.0
28380.133056640625,983.0,-3.0,8.0,215718.0
28393.473876953125,984.0,1.0,9.0,215719.0
28406.81494140625,985.0,7.0,8.0,215718.0
28420.15576171875,986.0,11.0,6.0,215716.0
28433.496826171875,987.0,15.0,7.0,215717.0
28446.837646484375,988.0,18.0,7.0,215717.0
28460.1787109375,989.0,17.0,8.0,215718.0
28473.51953125,990.0,16.0,10.0,215720.0
28486.8603515625,991.0,16.0,13.0,215723.0
28500.201416015625,992.0,16.0,16.0,215726.0
28513.542236328125,993.0,14.0,16.0,215726.0
28526.88330078125,994.0,11.0,15.0,215725.0
28540.22412109375,995.0,7.0,10.0,215720.0
28553.565185546875,996.0,6.0,5.0,215715.0
28566.906005859375,997.0,6.0,0.0,215710.0
28580.2470703125,998.0,7.0,-4.0,215706.0
28593.587890625,999.0,9.0,-8.0,215702.0
28606.9287109375,1000.0,12.0,-9.0,215701.0
28620.269775390625,1001.0,14.0,-6.0,215704.0
28633.610595703125,1002.0,16.0,-1.0,215709.0
28646.95166015625,1003.0,18.0,4.0,215714.0
28660.29248046875,1004.0,18.0,7.0,215717.0
28673.633544921875,1005.0,17.0,7.0,215717.0
28686.974365234375,1006.0,13.0,0.0,215710.0
28700.3154296875,1007.0,6.0,-9.0,215701.0
28713.65625,1008.0,-4.0,-18.0,215692.0
28726.9970703125,1009.0,-14.0,-26.0,215684.0
28740.338134765625,1010.0,-24.0,-31.0,215679.0
28753.678955078125,1011.0,-31.0,-32.0,215678.0
28767.02001953125,1012.0,-34.0,-30.0,215680.0
28780.36083984375,1013.0,-36.0,-27.0,215683.0
28793.701904296875,1014.0,-35.0,-22.0,215688.0
28807.042724609375,1015.0,-32.0,-17.0,215693.0
28820.3837890625,1016.0,-28.0,-12.0,215698.0
28833.724609375,1017.0,-22.0,-10.0,215700.0
28847.0654296875,1018.0,-17.0,-10.0,215700.0
28860.406494140625,1019.0,-11.0,-11.0,215699.0
28873.747314453125,1020.0,-4.0,-11.0,215699.0
28887.08837890625,1021.0,1.0,-10.0,215700.0
28900.42919921875,1022.0,6.0,-9.0,215701.0
28913.770263671875,1023.0,9.0,-8.0,215702.0
28927.111083984375,1024.0,10.0,-6.0,215704.0
28940.4521484375,1025.0,8.0,-4.0,215706.0
28953.79296875,1026.0,6.0,-4.0,215706.0
28967.1337890625,1027.0,2.0,-6.0,215704.0
28980.474853515625,1028.0,-2.0,-8.0,215702.0
28993.815673828125,1029.0,-7.0,-10.0,215700.0
29007.15673828125,1030.0,-12.0,-12.0,215698.0
29020.49755859375,1031.0,-17.0,-11.0,215699.0
29033.838623046875,1032.0,-21.0,-11.0,215699.0
29047.179443359375,1033.0,-21.0,-9.0,215701.0
29060.5205078125,1034.0,-20.0,-4.0,215706.0
29073.861328125,1035.0,-17.0,1.0,215711.0
29087.2021484375,1036.0,-13.0,6.0,215716.0
29100.543212890625,1037.0,-10.0,9.0,215719.0
29113.884033203125,1038.0,-9.0,12.0,215722.0
29127.22509765625,1039.0,-7.0,14.0,215724.0
29140.56591796875,1040.0,-4.0,16.0,215726.0
29153.906982421875,1041.0,0.0,17.0,215727.0
29167.247802734375,1042.0,4.0,19.0,215729.0
29180.5888671875,1043.0,6.0,19.0,215729.0
29193.9296875,1044.0,8.0,19.0,215729.0
29207.2705078125,1045.0,9.0,17.0,215727.0
29220.611572265625,1046.0,9.0,14.0,215724.0
29233.952392578125,1047.0,10.0,13.0,215723.0
29247.29345703125,1048.0,10.0,13.0,215723.0
29260.63427734375,1049.0,11.0,15.0,215725.0
29273.975341796875,1050.0,11.0,17.0,215727.0
29287.316162109375,1051.0,11.0,20.0,215730.0
29300.6572265625,1052.0,12.0,22.0,215732.0
29313.998046875,1053.0,13.0,23.0,215733.0
29327.3388671875,1054.0,12.0,24.0,215734.0
29340.679931640625,1055.0,12.0,25.0,215735.0
29354.020751953125,1056.0,10.0,24.0,215734.0
29367.36181640625,1057.0,11.0,24.0,215734.0
29380.70263671875,1058.0,11.0,21.0,215731.0
29394.043701171875,1059.0,9.0,14.0,215724.0
29407.384521484375,1060.0,3.0,6.0,215716.0
29420.7255859375,1061.0,-6.0,-3.0,215707.0
29434.06640625,1062.0,-14.0,-9.0,215701.0
29447.4072265625,1063.0,-21.0,-13.0,215697.0
29460.748291015625,1064.0,-25.0,-14.0,215696.0
29474.089111328125,1065.0,-25.0,-13.0,215697.0
29487.43017578125,1066.0,-23.0,-12.0,215698.0
29500.77099609375,1067.0,-20.0,-12.0,215698.0
29514.112060546875,1068.0,-17.0,-11.0,215699.0
29527.452880859375,1069.0,-12.0,-9.0,215701.0
29540.7939453125,1070.0,-8.0,-6.0,215704.0
29554.134765625,1071.0,-4.0,-3.0,215707.0
29567.4755859375,1072.0,-1.0,1.0,215711.0
29580.816650390625,1073.0,4.0,4.0,215714.0
29594.157470703125,1074.0,9.0,5.0,215715.0
29607.49853515625,1075.0,14.0,7.0,215717.0
29620.83935546875,1076.0,18.0,9.0,215719.0
29634.180419921875,1077.0,20.0,11.0,215721.0
29647.521240234375,1078.0,19.0,13.0,215723.0
29660.8623046875,1079.0,15.0,12.0,215722.0
29674.203125,1080.0,9.0,9.0,215719.0
29687.5439453125,1081.0,2.0,5.0,215715.0
29700.885009765625,1082.0,-6.0,3.0,215713.0
29714.225830078125,1083.0,-16.0,1.0,215711.0
29727.56689453125,1084.0,-24.0,1.0,215711.0
29740.90771484375,1085.0,-28.0,0.0,215710.0
29754.248779296875,1086.0,-28.0,-1.0,215709.0
29767.589599609375,1087.0,-28.0,-2.0,215708.0
29780.9306640625,1088.0,-27.0,-2.0,215708.0
29794.271484375,1089.0,-25.0,-1.0,215709.0
29807.6123046875,1090.0,-23.0,1.0,215711.0
29820.953369140625,1091.0,-23.0,4.0,215714.0
29834.294189453125,1092.0,-22.0,6.0,215716.0
29847.63525390625,1093.0,-18.0,6.0,215716.0
29860.97607421875,1094.0,-16.0,4.0,215714.0
29874.317138671875,1095.0,-15.0,1.0,215711.0
29887.657958984375,1096.0,-17.0,-2.0,215708.0
29900.9990234375,1097.0,-19.0,-3.0,215707.0
29914.33984375,1098.0,-20.0,-4.0,215706.0
29927.6806640625,1099.0,-21.0,-4.0,215706.0
29941.021728515625,1100.0,-22.0,-3.0,215707.0
29954.362548828125,1101.0,-24.0,-1.0,215709.0
29967.70361328125,1102.0,-24.0,2.0,215712.0
29981.04443359375,1103.0,-27.0,6.0,215716.0
29994.385498046875,1104.0,-31.0,10.0,215720.0
30007.726318359375,1105.0,-32.0,14.0,215724.0
30021.0673828125,1106.0,-32.0,14.0,215724.0
30034.408203125,1107.0,-30.0,14.0,215724.0
30047.7490234375,1108.0,-29.0,14.0,215724.0
30061.090087890625,1109.0,-29.0,15.0,215725.0
30074.430908203125,1110.0,-32.0,14.0,215724.0
30087.77197265625,1111.0,-36.0,10.0,215720.0
30101.11279296875,1112.0,-43.0,4.0,215714.0
30114.453857421875,1113.0,-52.0,-1.0,215709.0
30127.794677734375,1114.0,-64.0,-4.0,215706.0
30141.1357421875,1115.0,-72.0,-5.0,215705.0
30154.4765625,1116.0,-75.0,-5.0,215705.0
30167.8173828125,1117.0,-74.0,-4.0,215706.0
30181.158447265625,1118.0,-71.0,-5.0,215705.0
30194.499267578125,1119.0,-67.0,-8.0,215702.0
30207.84033203125,1120.0,-60.0,-10.0,215700.0
30221.18115234375,1121.0,-50.0,-13.0,215697.0
30234.522216796875,1122.0,-39.0,-14.0,215696.0
30247.863037109375,1123.0,-31.0,-15.0,215695.0
30261.2041015625,1124.0,-23.0,-13.0,215697.0
30274.544921875,1125.0,-19.0,-10.0,215700.0
30287.8857421875,1126.0,-16.0,-6.0,215704.0
30301.226806640625,1127.0,-12.0,-1.0,215709.0
30314.567626953125,1128.0,-6.0,5.0,215715.0
30327.90869140625,1129.0,0.0,10.0,215720.0
30341.24951171875,1130.0,4.0,13.0,215723.0
30354.590576171875,1131.0,5.0,13.0,215723.0
30367.931396484375,1132.0,4.0,11.0,215721.0
30381.2724609375,1133.0,2.0,6.0,215716.0
30394.61328125,1134.0,-2.0,3.0,215713.0
30407.9541015625,1135.0,-6.0,3.0,215713.0
30421.295166015625,1136.0,-7.0,4.0,215714.0
30434.635986328125,1137.0,-8.0,8.0,215718.0
30447.97705078125,1138.0,-6.0,11.0,215721.0
30461.31787109375,1139.0,-6.0,14.0,215724.0
30474.658935546875,1140.0,-6.0,16.0,215726.0
30487.999755859375,1141.0,-6.0,17.0,215727.0
30501.3408203125,1142.0,-6.0,17.0,215727.0
30514.681640625,1143.0,-4.0,18.0,215728.0
30528.0224609375,1144.0,-2.0,19.0,215729.0
30541.363525390625,1145.0,2.0,20.0,215730.0
30554.704345703125,1146.0,5.0,22.0,215732.0
30568.04541015625,1147.0,7.0,22.0,215732.0
30581.38623046875,1148.0,8.0,25.0,215735.0
30594.727294921875,1149.0,10.0,27.0,215737.0
30608.068115234375,1150.0,11.0,27.0,215737.0
30621.4091796875,1151.0,12.0,25.0,215735.0
30634.75,1152.0,12.0,22.0,215732.0
30648.0908203125,1153.0,12.0,18.0,215728.0
30661.431884765625,1154.0,13.0,15.0,215725.0
30674.772705078125,1155.0,13.0,16.0,215726.0
30688.11376953125,1156.0,13.0,17.0,215727.0
30701.45458984375,1157.0,13.0,18.0,215728.0
30714.795654296875,1158.0,13.0,18.0,215728.0
30728.136474609375,1159.0,13.0,17.0,215727.0
30741.4775390625,1160.0,15.0,16.0,215726.0
30754.818359375,1161.0,15.0,15.0,215725.0
30768.1591796875,1162.0,12.0,13.0,215723.0
30781.500244140625,1163.0,5.0,8.0,215718.0
30794.841064453125,1164.0,-5.0,2.0,215712.0
30808.18212890625,1165.0,-16.0,-3.0,215707.0
30821.52294921875,1166.0,-26.0,-6.0,215704.0
30834.864013671875,1167.0,-34.0,-8.0,215702.0
30848.204833984375,1168.0,-37.0,-10.0,215700.0
30861.5458984375,1169.0,-39.0,-12.0,215698.0
30874.88671875,1170.0,-35.0,-15.0,215695.0
30888.2275390625,1171.0,-32.0,-18.0,215692.0
30901.568603515625,1172.0,-27.0,-20.0,215690.0
30914.909423828125,1173.0,-20.0,-22.0,215688.0
30928.25048828125,1174.0,-13.0,-22.0,215688.0
30941.59130859375,1175.0,-7.0,-20.0,215690.0
30954.932373046875,1176.0,-3.0,-17.0,215693.0
30968.273193359375,1177.0,1.0,-14.0,215696.0
30981.6142578125,1178.0,5.0,-11.0,215699.0
30994.955078125,1179.0,7.0,-8.0,215702.0
31008.2958984375,1180.0,9.0,-3.0,215707.0
31021.636962890625,1181.0,10.0,2.0,215712.0
31034.977783203125,1182.0,9.0,5.0,215715.0
31048.31884765625,1183.0,6.0,5.0,215715.0
31061.65966796875,1184.0,2.0,3.0,215713.0
31075.000732421875,1185.0,-3.0,0.0,215710.0
31088.341552734375,1186.0,-8.0,-2.0,215708.0
31101.6826171875,1187.0,-12.0,-3.0,215707.0
31115.0234375,1188.0,-13.0,-3.0,215707.0
31128.3642578125,1189.0,-12.0,-3.0,215707.0
31141.705322265625,1190.0,-10.0,-1.0,215709.0
31155.046142578125,1191.0,-9.0,3.0,215713.0
31168.38720703125,1192.0,-8.0,7.0,215717.0
31181.72802734375,1193.0,-9.0,10.0,215720.0
31195.069091796875,1194.0,-8.0,11.0,215721.0
31208.409912109375,1195.0,-6.0,10.0,215720.0
31221.7509765625,1196.0,-3.0,9.0,215719.0
31235.091796875,1197.0,1.0,8.0,215718.0
31248.4326171875,1198.0,3.0,7.0,215717.0
31261.773681640625,1199.0,6.0,7.0,215717.0
31275.114501953125,1200.0,9.0,8.0,215718.0
31288.45556640625,1201.0,9.0,10.0,215720.0
31301.79638671875,1202.0,9.0,11.0,215721.0
31315.137451171875,1203.0,10.0,11.0,215721.0
31328.478271484375,1204.0,10.0,12.0,215722.0
31341.8193359375,1205.0,10.0,14.0,215724.0
31355.16015625,1206.0,9.0,17.0,215727.0
31368.5009765625,1207.0,8.0,19.0,215729.0
31381.842041015625,1208.0,7.0,18.0,215728.0
31395.182861328125,1209.0,7.0,16.0,215726.0
31408.52392578125,1210.0,7.0,15.0,215725.0
31421.86474609375,1211.0,7.0,15.0,215725.0
31435.205810546875,1212.0,7.0,14.0,215724.0
31448.546630859375,1213.0,6.0,12.0,215722.0
31461.8876953125,1214.0,7.0,10.0,215720.0
31475.228515625,1215.0,8.0,8.0,215718.0
31488.5693359375,1216.0,6.0,5.0,215715.0
31501.910400390625,1217.0,1.0,-1.0,215709.0
31515.251220703125,1218.0,-8.0,-8.0,215702.0
31528.59228515625,1219.0,-20.0,-17.0,215693.0
31541.93310546875,1220.0,-31.0,-26.0,215684.0
31555.274169921875,1221.0,-40.0,-32.0,215678.0
31568.614990234375,1222.0,-42.0,-36.0,215674.0
31581.9560546875,1223.0,-42.0,-37.0,215673.0
31595.296875,1224.0,-39.0,-34.0,215676.0
31608.6376953125,1225.0,-34.0,-29.0,215681.0
31621.978759765625,1226.0,-28.0,-22.0,215688.0
31635.319580078125,1227.0,-22.0,-15.0,215695.0
31648.66064453125,1228.0,-16.0,-6.0,215704.0
31662.00146484375,1229.0,-10.0,2.0,215712.0
31675.342529296875,1230.0,-6.0,10.0,215720.0
31688.683349609375,1231.0,-3.0,16.0,215726.0
31702.0244140625,1232.0,0.0,19.0,215729.0
31715.365234375,1233.0,3.0,20.0,215730.0
31728.7060546875,1234.0,5.0,18.0,215728.0
31742.047119140625,1235.0,5.0,17.0,215727.0
31755.387939453125,1236.0,2.0,14.0,215724.0
31768.72900390625,1237.0,-3.0,12.0,215722.0
31782.06982421875,1238.0,-8.0,11.0,215721.0
31795.410888671875,1239.0,-13.0,9.0,215719.0
31808.751708984375,1240.0,-15.0,5.0,215715.0
31822.0927734375,1241.0,-18.0,0.0,215710.0
31835.43359375,1242.0,-20.0,-5.0,215705.0
31848.7744140625,1243.0,-21.0,-8.0,215702.0
31862.115478515625,1244.0,-18.0,-7.0,215703.0
31875.456298828125,1245.0,-12.0,-4.0,215706.0
31888.79736328125,1246.0,-6.0,2.0,215712.0
31902.13818359375,1247.0,-1.0,9.0,215719.0
31915.479248046875,1248.0,1.0,15.0,215725.0
31928.820068359375,1249.0,0.0,16.0,215726.0
31942.1611328125,1250.0,0.0,17.0,215727.0
31955.501953125,1251.0,0.0,15.0,215725.0
31968.8427734375,1252.0,-1.0,14.0,215724.0
31982.183837890625,1253.0,0.0,13.0,215723.0
31995.524658203125,1254.0,0.0,12.0,215722.0
32008.86572265625,1255.0,0.0,8.0,215718.0
32022.20654296875,1256.0,-1.0,4.0,215714.0
32035.547607421875,1257.0,-2.0,-1.0,215709.0
32048.888427734375,1258.0,-2.0,-6.0,215704.0
32062.2294921875,1259.0,-1.0,-10.0,215700.0
32075.5703125,1260.0,-1.0,-10.0,215700.0
32088.9111328125,1261.0,-2.0,-7.0,215703.0
32102.252197265625,1262.0,-3.0,-2.0,215708.0
32115.593017578125,1263.0,-4.0,4.0,215714.0
32128.93408203125,1264.0,-5.0,7.0,215717.0
32142.27490234375,1265.0,-6.0,8.0,215718.0
32155.615966796875,1266.0,-7.0,4.0,215714.0
32168.956787109375,1267.0,-8.0,-1.0,215709.0
32182.2978515625,1268.0,-7.0,-5.0,215705.0
32195.638671875,1269.0,-2.0,-8.0,215702.0
32208.9794921875,1270.0,0.0,-9.0,215701.0
32222.320556640625,1271.0,1.0,-10.0,215700.0
32235.661376953125,1272.0,-2.0,-13.0,215697.0
32249.00244140625,1273.0,-9.0,-16.0,215694.0
32262.34326171875,1274.0,-18.0,-21.0,215689.0
32275.684326171875,1275.0,-27.0,-26.0,215684.0
32289.025146484375,1276.0,-34.0,-31.0,215679.0
32302.3662109375,1277.0,-38.0,-34.0,215676.0
32315.70703125,1278.0,-42.0,-31.0,215679.0
32329.0478515625,1279.0,-42.0,-27.0,215683.0
32342.388916015625,1280.0,-41.0,-21.0,215689.0
32355.729736328125,1281.0,-38.0,-14.0,215696.0
32369.07080078125,1282.0,-35.0,-7.0,215703.0
32382.41162109375,1283.0,-28.0,-1.0,215709.0
32395.752685546875,1284.0,-23.0,5.0,215715.0
32409.093505859375,1285.0,-17.0,9.0,215719.0
32422.4345703125,1286.0,-10.0,10.0,215720.0
32435.775390625,1287.0,-2.0,12.0,215722.0
32449.1162109375,1288.0,6.0,14.0,215724.0
32462.457275390625,1289.0,13.0,17.0,215727.0
32475.798095703125,1290.0,17.0,18.0,215728.0
32489.13916015625,1291.0,15.0,16.0,215726.0
32502.47998046875,1292.0,8.0,11.0,215721.0
32515.821044921875,1293.0,0.0,4.0,215714.0
32529.161865234375,1294.0,-9.0,-2.0,215708.0
32542.5029296875,1295.0,-15.0,-7.0,215703.0
32555.84375,1296.0,-20.0,-11.0,215699.0
32569.1845703125,1297.0,-23.0,-14.0,215696.0
32582.525634765625,1298.0,-23.0,-16.0,215694.0
32595.866455078125,1299.0,-22.0,-15.0,215695.0
32609.20751953125,1300.0,-19.0,-14.0,215696.0
32622.54833984375,1301.0,-16.0,-11.0,215699.0
32635.889404296875,1302.0,-12.0,-9.0,215701.0
32649.230224609375,1303.0,-10.0,-8.0,215702.0
32662.5712890625,1304.0,-9.0,-8.0,215702.0
32675.912109375,1305.0,-9.0,-7.0,215703.0
32689.2529296875,1306.0,-9.0,-4.0,215706.0
32702.593994140625,1307.0,-7.0,-2.0,215708.0
32715.934814453125,1308.0,-6.0,-2.0,215708.0
32729.27587890625,1309.0,-6.0,-3.0,215707.0
32742.61669921875,1310.0,-7.0,-6.0,215704.0
32755.957763671875,1311.0,-8.0,-9.0,215701.0
32769.298583984375,1312.0,-8.0,-11.0,215699.0
32782.6396484375,1313.0,-7.0,-11.0,215699.0
32795.98046875,1314.0,-6.0,-12.0,215698.0
32809.3212890625,1315.0,-5.0,-10.0,215700.0
32822.662353515625,1316.0,-4.0,-7.0,215703.0
32836.003173828125,1317.0,-4.0,-3.0,215707.0
32849.34423828125,1318.0,-2.0,2.0,215712.0
32862.68505859375,1319.0,0.0,6.0,215716.0
32876.026123046875,1320.0,3.0,10.0,215720.0
32889.366943359375,1321.0,4.0,12.0,215722.0
32902.7080078125,1322.0,5.0,10.0,215720.0
32916.048828125,1323.0,4.0,5.0,215715.0
32929.3896484375,1324.0,0.0,-2.0,215708.0
32942.730712890625,1325.0,-10.0,-13.0,215697.0
32956.071533203125,1326.0,-23.0,-23.0,215687.0
32969.41259765625,1327.0,-39.0,-32.0,215678.0
32982.75341796875,1328.0,-52.0,-38.0,215672.0
32996.094482421875,1329.0,-62.0,-39.0,215671.0
33009.435302734375,1330.0,-66.0,-37.0,215673.0
33022.7763671875,1331.0,-63.0,-34.0,215676.0
33036.1171875,1332.0,-56.0,-31.0,215679.0
33049.4580078125,1333.0,-47.0,-28.0,215682.0
33062.799072265625,1334.0,-37.0,-26.0,215684.0
33076.139892578125,1335.0,-29.0,-22.0,215688.0
33089.48095703125,1336.0,-22.0,-18.0,215692.0
33102.82177734375,1337.0,-16.0,-13.0,215697.0
33116.162841796875,1338.0,-11.0,-8.0,215702.0
33129.503662109375,1339.0,-6.0,-4.0,215706.0
33142.8447265625,1340.0,0.0,-1.0,215709.0
33156.185546875,1341.0,6.0,1.0,215711.0
33169.5263671875,1342.0,9.0,2.0,215712.0
33182.867431640625,1343.0,9.0,-1.0,215709.0
33196.208251953125,1344.0,6.0,-7.0,215703.0
33209.54931640625,1345.0,2.0,-13.0,215697.0
33222.89013671875,1346.0,-2.0,-17.0,215693.0
33236.231201171875,1347.0,-6.0,-19.0,215691.0
33249.572021484375,1348.0,-8.0,-18.0,215692.0
33262.9130859375,1349.0,-7.0,-16.0,215694.0
33276.25390625,1350.0,-7.0,-14.0,215696.0
33289.5947265625,1351.0,-8.0,-12.0,215698.0
33302.935791015625,1352.0,-8.0,-9.0,215701.0
33316.276611328125,1353.0,-6.0,-5.0,215705.0
33329.61767578125,1354.0,-3.0,-1.0,215709.0
33342.95849609375,1355.0,-1.0,3.0,215713.0
33356.299560546875,1356.0,-1.0,5.0,215715.0
33369.640380859375,1357.0,-2.0,5.0,215715.0
33382.9814453125,1358.0,-5.0,1.0,215711.0
33396.322265625,1359.0,-7.0,-3.0,215707.0
33409.6630859375,1360.0,-7.0,-6.0,215704.0
33423.004150390625,1361.0,-7.0,-9.0,215701.0
33436.344970703125,1362.0,-7.0,-13.0,215697.0
33449.68603515625,1363.0,-6.0,-16.0,215694.0
33463.02685546875,1364.0,-5.0,-18.0,215692.0
33476.367919921875,1365.0,-3.0,-19.0,215691.0
33489.708740234375,1366.0,-1.0,-19.0,215691.0
33503.0498046875,1367.0,0.0,-20.0,215690.0
33516.390625,1368.0,0.0,-18.0,215692.0
33529.7314453125,1369.0,0.0,-16.0,215694.0
33543.072509765625,1370.0,1.0,-14.0,215696.0
33556.413330078125,1371.0,2.0,-12.0,215698.0
33569.75439453125,1372.0,3.0,-12.0,215698.0
33583.09521484375,1373.0,4.0,-13.0,215697.0
33596.436279296875,1374.0,4.0,-15.0,215695.0
33609.777099609375,1375.0,4.0,-17.0,215693.0
33623.1181640625,1376.0,2.0,-18.0,215692.0
33636.458984375,1377.0,-4.0,-19.0,215691.0
33649.7998046875,1378.0,-12.0,-25.0,215685.0
33663.140869140625,1379.0,-22.0,-31.0,215679.0
33676.481689453125,1380.0,-30.0,-35.0,215675.0
33689.82275390625,1381.0,-36.0,-39.0,215671.0
33703.16357421875,1382.0,-38.0,-45.0,215665.0
33716.504638671875,1383.0,-38.0,-48.0,215662.0
33729.845458984375,1384.0,-36.0,-49.0,215661.0
33743.1865234375,1385.0,-32.0,-48.0,215662.0
33756.52734375,1386.0,-29.0,-45.0,215665.0
33769.8681640625,1387.0,-27.0,-42.0,215668.0
33783.209228515625,1388.0,-22.0,-37.0,215673.0
33796.550048828125,1389.0,-19.0,-31.0,215679.0
33809.89111328125,1390.0,-18.0,-25.0,215685.0
33823.23193359375,1391.0,-16.0,-17.0,215693.0
33836.572998046875,1392.0,-13.0,-10.0,215700.0
33849.913818359375,1393.0,-11.0,-3.0,215707.0
33863.2548828125,1394.0,-8.0,2.0,215712.0
33876.595703125,1395.0,-6.0,5.0,215715.0
33889.9365234375,1396.0,-5.0,5.0,215715.0
33903.277587890625,1397.0,-6.0,5.0,215715.0
33916.618408203125,1398.0,-9.0,6.0,215716.0
33929.95947265625,1399.0,-13.0,7.0,215717.0
33943.30029296875,1400.0,-17.0,6.0,215716.0
33956.641357421875,1401.0,-20.0,4.0,215714.0
33969.982177734375,1402.0,-24.0,0.0,215710.0
33983.3232421875,1403.0,-28.0,-4.0,215706.0
33996.6640625,1404.0,-31.0,-9.0,215701.0
34010.0048828125,1405.0,-34.0,-13.0,215697.0
34023.345947265625,1406.0,-36.0,-15.0,215695.0
34036.686767578125,1407.0,-36.0,-17.0,215693.0
34050.02783203125,1408.0,-35.0,-15.0,215695.0
34063.36865234375,1409.0,-32.0,-13.0,215697.0
34076.709716796875,1410.0,-30.0,-10.0,215700.0
34090.050537109375,1411.0,-27.0,-9.0,215701.0
34103.3916015625,1412.0,-25.0,-9.0,215701.0
34116.732421875,1413.0,-25.0,-11.0,215699.0
34130.0732421875,1414.0,-27.0,-10.0,215700.0
34143.414306640625,1415.0,-27.0,-7.0,215703.0
34156.755126953125,1416.0,-25.0,-3.0,215707.0
34170.09619140625,1417.0,-21.0,1.0,215711.0
34183.43701171875,1418.0,-19.0,4.0,215714.0
34196.778076171875,1419.0,-17.0,6.0,215716.0
34210.118896484375,1420.0,-17.0,9.0,215719.0
34223.4599609375,1421.0,-18.0,11.0,215721.0
34236.80078125,1422.0,-19.0,13.0,215723.0
34250.1416015625,1423.0,-18.0,14.0,215724.0
34263.482666015625,1424.0,-15.0,15.0,215725.0
34276.823486328125,1425.0,-9.0,15.0,215725.0
34290.16455078125,1426.0,-1.0,13.0,215723.0
34303.50537109375,1427.0,6.0,11.0,215721.0
34316.846435546875,1428.0,11.0,7.0,215717.0
34330.187255859375,1429.0,14.0,5.0,215715.0
34343.5283203125,1430.0,15.0,4.0,215714.0
34356.869140625,1431.0,14.0,5.0,215715.0
34370.2099609375,1432.0,9.0,4.0,215714.0
34383.551025390625,1433.0,2.0,1.0,215711.0
34396.891845703125,1434.0,-8.0,-3.0,215707.0
34410.23291015625,1435.0,-16.0,-7.0,215703.0
34423.57373046875,1436.0,-22.0,-9.0,215701.0
34436.914794921875,1437.0,-27.0,-9.0,215701.0
34450.255615234375,1438.0,-31.0,-7.0,215703.0
34463.5966796875,1439.0,-32.0,-7.0,215703.0
34476.9375,1440.0,-32.0,-6.0,215704.0
34490.2783203125,1441.0,-31.0,-5.0,215705.0
34503.619384765625,1442.0,-27.0,-6.0,215704.0
34516.960205078125,1443.0,-22.0,-6.0,215704.0
34530.30126953125,1444.0,-16.0,-4.0,215706.0
34543.64208984375,1445.0,-11.0,-1.0,215709.0
34556.983154296875,1446.0,-5.0,3.0,215713.0
34570.323974609375,1447.0,0.0,6.0,215716.0
34583.6650390625,1448.0,6.0,8.0,215718.0
34597.005859375,1449.0,10.0,10.0,215720.0
34610.3466796875,1450.0,11.0,11.0,215721.0
34623.687744140625,1451.0,9.0,10.0,215720.0
34637.028564453125,1452.0,4.0,8.0,215718.0
34650.36962890625,1453.0,-1.0,3.0,215713.0
34663.71044921875,1454.0,-6.0,-2.0,215708.0
34677.051513671875,1455.0,-10.0,-8.0,215702.0
34690.392333984375,1456.0,-11.0,-11.0,215699.0
34703.7333984375,1457.0,-11.0,-11.0,215699.0
34717.07421875,1458.0,-12.0,-8.0,215702.0
34730.4150390625,1459.0,-13.0,-7.0,215703.0
34743.756103515625,1460.0,-12.0,-6.0,215704.0
34757.096923828125,1461.0,-11.0,-5.0,215705.0
34770.43798828125,1462.0,-10.0,-4.0,215706.0
34783.77880859375,1463.0,-8.0,-4.0,215706.0
34797.119873046875,1464.0,-6.0,-3.0,215707.0
34810.460693359375,1465.0,-3.0,-2.0,215708.0
34823.8017578125,1466.0,-1.0,-1.0,215709.0
34837.142578125,1467.0,1.0,-3.0,215707.0
34850.4833984375,1468.0,1.0,-6.0,215704.0
34863.824462890625,1469.0,1.0,-9.0,215701.0
34877.165283203125,1470.0,1.0,-12.0,215698.0
34890.50634765625,1471.0,2.0,-12.0,215698.0
34903.84716796875,1472.0,3.0,-9.0,215701.0
34917.188232421875,1473.0,5.0,-5.0,215705.0
34930.529052734375,1474.0,7.0,-1.0,215709.0
34943.8701171875,1475.0,7.0,1.0,215711.0
34957.2109375,1476.0,7.0,0.0,215710.0
34970.5517578125,1477.0,6.0,0.0,215710.0
34983.892822265625,1478.0,5.0,0.0,215710.0
34997.233642578125,1479.0,5.0,0.0,215710.0
35010.57470703125,1480.0,7.0,0.0,215710.0
35023.91552734375,1481.0,8.0,-1.0,215709.0
35037.256591796875,1482.0,8.0,-1.0,215709.0
35050.597412109375,1483.0,7.0,0.0,215710.0
35063.9384765625,1484.0,5.0,-1.0,215709.0
35077.279296875,1485.0,3.0,-1.0,215709.0
35090.6201171875,1486.0,2.0,0.0,215710.0
35103.961181640625,1487.0,0.0,1.0,215711.0
35117.302001953125,1488.0,-4.0,1.0,215711.0
35130.64306640625,1489.0,-11.0,-1.0,215709.0
35143.98388671875,1490.0,-19.0,-5.0,215705.0
35157.324951171875,1491.0,-26.0,-11.0,215699.0
35170.665771484375,1492.0,-33.0,-18.0,215692.0
35184.0068359375,1493.0,-37.0,-26.0,215684.0
35197.34765625,1494.0,-41.0,-32.0,215678.0
35210.6884765625,1495.0,-42.0,-36.0,215674.0
35224.029541015625,1496.0,-41.0,-36.0,215674.0
35237.370361328125,1497.0,-36.0,-31.0,215679.0
35250.71142578125,1498.0,-30.0,-24.0,215686.0
35264.05224609375,1499.0,-21.0,-15.0,215695.0
35277.393310546875,1500.0,-12.0,-9.0,215701.0
35290.734130859375,1501.0,-5.0,-3.0,215707.0
35304.0751953125,1502.0,1.0,0.0,215710.0
35317.416015625,1503.0,5.0,1.0,215711.0
35330.7568359375,1504.0,7.0,1.0,215711.0
35344.097900390625,1505.0,8.0,0.0,215710.0
35357.438720703125,1506.0,9.0,-2.0,215708.0
35370.77978515625,1507.0,9.0,-3.0,215707.0
35384.12060546875,1508.0,8.0,-5.0,215705.0
35397.461669921875,1509.0,5.0,-7.0,215703.0
35410.802490234375,1510.0,2.0,-9.0,215701.0
35424.1435546875,1511.0,-1.0,-13.0,215697.0
35437.484375,1512.0,-6.0,-17.0,215693.0
35450.8251953125,1513.0,-11.0,-20.0,215690.0
35464.166259765625,1514.0,-15.0,-22.0,215688.0
35477.507080078125,1515.0,-19.0,-22.0,215688.0
35490.84814453125,1516.0,-21.0,-20.0,215690.0
35504.18896484375,1517.0,-22.0,-16.0,215694.0
35517.530029296875,1518.0,-19.0,-14.0,215696.0
35530.870849609375,1519.0,-16.0,-14.0,215696.0
35544.2119140625,1520.0,-12.0,-14.0,215696.0
35557.552734375,1521.0,-7.0,-16.0,215694.0
35570.8935546875,1522.0,-1.0,-17.0,215693.0
35584.234619140625,1523.0,3.0,-16.0,215694.0
35597.575439453125,1524.0,5.0,-15.0,215695.0
35610.91650390625,1525.0,7.0,-14.0,215696.0
35624.25732421875,1526.0,8.0,-13.0,215697.0
35637.598388671875,1527.0,8.0,-14.0,215696.0
35650.939208984375,1528.0,7.0,-15.0,215695.0
35664.2802734375,1529.0,7.0,-14.0,215696.0
35677.62109375,1530.0,7.0,-12.0,215698.0
35690.9619140625,1531.0,9.0,-9.0,215701.0
35704.302978515625,1532.0,11.0,-6.0,215704.0
35717.643798828125,1533.0,11.0,-3.0,215707.0
35730.98486328125,1534.0,12.0,-1.0,215709.0
35744.32568359375,1535.0,13.0,-2.0,215708.0
35757.666748046875,1536.0,14.0,-2.0,215708.0
35771.007568359375,1537.0,16.0,-2.0,215708.0
35784.3486328125,1538.0,19.0,-2.0,215708.0
35797.689453125,1539.0,20.0,-2.0,215708.0
35811.0302734375,1540.0,21.0,-1.0,215709.0
35824.371337890625,1541.0,22.0,-1.0,215709.0
35837.712158203125,1542.0,19.0,0.0,215710.0
35851.05322265625,1543.0,12.0,-1.0,215709.0
35864.39404296875,1544.0,0.0,-3.0,215707.0
35877.735107421875,1545.0,-13.0,-7.0,215703.0
35891.075927734375,1546.0,-25.0,-9.0,215701.0
35904.4169921875,1547.0,-34.0,-9.0,215701.0
35917.7578125,1548.0,-39.0,-8.0,215702.0
35931.0986328125,1549.0,-38.0,-7.0,215703.0
35944.439697265625,1550.0,-35.0,-7.0,215703.0
35957.780517578125,1551.0,-30.0,-6.0,215704.0
35971.12158203125,1552.0,-26.0,-4.0,215706.0
35984.46240234375,1553.0,-22.0,-2.0,215708.0
35997.803466796875,1554.0,-18.0,2.0,215712.0
36011.144287109375,1555.0,-14.0,7.0,215717.0
36024.4853515625,1556.0,-10.0,12.0,215722.0
36037.826171875,1557.0,-5.0,15.0,215725.0
36051.1669921875,1558.0,-1.0,15.0,215725.0
36064.508056640625,1559.0,4.0,14.0,215724.0
36077.848876953125,1560.0,7.0,11.0,215721.0
36091.18994140625,1561.0,10.0,8.0,215718.0
36104.53076171875,1562.0,12.0,4.0,215714.0
36117.871826171875,1563.0,11.0,-1.0,215709.0
36131.212646484375,1564.0,9.0,-5.0,215705.0
36144.5537109375,1565.0,5.0,-8.0,215702.0
36157.89453125,1566.0,0.0,-11.0,215699.0
36171.2353515625,1567.0,-4.0,-9.0,215701.0
36184.576416015625,1568.0,-6.0,-8.0,215702.0
36197.917236328125,1569.0,-9.0,-6.0,215704.0
36211.25830078125,1570.0,-11.0,-4.0,215706.0
36224.59912109375,1571.0,-13.0,-2.0,215708.0
36237.940185546875,1572.0,-13.0,-1.0,215709.0
36251.281005859375,1573.0,-10.0,0.0,215710.0
36264.6220703125,1574.0,-8.0,1.0,215711.0
36277.962890625,1575.0,-5.0,2.0,215712.0
36291.3037109375,1576.0,-3.0,2.0,215712.0
36304.644775390625,1577.0,-2.0,4.0,215714.0
36317.985595703125,1578.0,-1.0,6.0,215716.0
36331.32666015625,1579.0,-1.0,7.0,215717.0
36344.66748046875,1580.0,-1.0,7.0,215717.0
36358.008544921875,1581.0,-2.0,6.0,215716.0
36371.349365234375,1582.0,-2.0,6.0,215716.0
36384.6904296875,1583.0,-1.0,7.0,215717.0
36398.03125,1584.0,1.0,6.0,215716.0
36411.3720703125,1585.0,2.0,7.0,215717.0
36424.713134765625,1586.0,5.0,7.0,215717.0
36438.053955078125,1587.0,8.0,5.0,215715.0
36451.39501953125,1588.0,11.0,3.0,215713.0
36464.73583984375,1589.0,12.0,-1.0,215709.0
36478.076904296875,1590.0,13.0,-5.0,215705.0
36491.417724609375,1591.0,13.0,-7.0,215703.0
36504.7587890625,1592.0,14.0,-7.0,215703.0
36518.099609375,1593.0,15.0,-6.0,215704.0
36531.4404296875,1594.0,14.0,-3.0,215707.0
36544.781494140625,1595.0,10.0,-2.0,215708.0
36558.122314453125,1596.0,7.0,0.0,215710.0
36571.46337890625,1597.0,4.0,0.0,215710.0
36584.80419921875,1598.0,0.0,-3.0,215707.0
36598.145263671875,1599.0,-6.0,-6.0,215704.0
36611.486083984375,1600.0,-14.0,-11.0,215699.0
36624.8271484375,1601.0,-22.0,-15.0,215695.0
36638.16796875,1602.0,-29.0,-18.0,215692.0
36651.5087890625,1603.0,-34.0,-20.0,215690.0
36664.849853515625,1604.0,-36.0,-21.0,215689.0
36678.190673828125,1605.0,-35.0,-19.0,215691.0
36691.53173828125,1606.0,-34.0,-17.0,215693.0
36704.87255859375,1607.0,-29.0,-16.0,215694.0
36718.213623046875,1608.0,-23.0,-14.0,215696.0
36731.554443359375,1609.0,-16.0,-11.0,215699.0
36744.8955078125,1610.0,-8.0,-8.0,215702.0
36758.236328125,1611.0,-1.0,-6.0,215704.0
36771.5771484375,1612.0,2.0,-3.0,215707.0
36784.918212890625,1613.0,3.0,-1.0,215709.0
36798.259033203125,1614.0,5.0,0.0,215710.0
36811.60009765625,1615.0,7.0,1.0,215711.0
36824.94091796875,1616.0,7.0,1.0,215711.0
36838.281982421875,1617.0,5.0,-2.0,215708.0
36851.622802734375,1618.0,2.0,-6.0,215704.0
36864.9638671875,1619.0,0.0,-11.0,215699.0
36878.3046875,1620.0,-2.0,-14.0,215696.0
36891.6455078125,1621.0,-5.0,-16.0,215694.0
36904.986572265625,1622.0,-8.0,-16.0,215694.0
36918.327392578125,1623.0,-11.0,-16.0,215694.0
36931.66845703125,1624.0,-15.0,-18.0,215692.0
36945.00927734375,1625.0,-19.0,-19.0,215691.0
36958.350341796875,1626.0,-24.0,-20.0,215690.0
36971.691162109375,1627.0,-26.0,-19.0,215691.0
36985.0322265625,1628.0,-24.0,-20.0,215690.0
36998.373046875,1629.0,-20.0,-20.0,215690.0
37011.7138671875,1630.0,-15.0,-20.0,215690.0
37025.054931640625,1631.0,-11.0,-20.0,215690.0
37038.395751953125,1632.0,-8.0,-18.0,215692.0
37051.73681640625,1633.0,-6.0,-16.0,215694.0
37065.07763671875,1634.0,-6.0,-13.0,215697.0
37078.418701171875,1635.0,-4.0,-10.0,215700.0
37091.759521484375,1636.0,-3.0,-8.0,215702.0
37105.1005859375,1637.0,0.0,-6.0,215704.0
37118.44140625,1638.0,3.0,-3.0,215707.0
37131.7822265625,1639.0,5.0,0.0,215710.0
37145.123291015625,1640.0,6.0,4.0,215714.0
37158.464111328125,1641.0,6.0,8.0,215718.0
37171.80517578125,1642.0,6.0,10.0,215720.0
37185.14599609375,1643.0,4.0,10.0,215720.0
37198.487060546875,1644.0,3.0,10.0,215720.0
37211.827880859375,1645.0,3.0,9.0,215719.0
37225.1689453125,1646.0,4.0,8.0,215718.0
37238.509765625,1647.0,4.0,7.0,215717.0
37251.8505859375,1648.0,4.0,7.0,215717.0
37265.191650390625,1649.0,5.0,6.0,215716.0
37278.532470703125,1650.0,6.0,4.0,215714.0
37291.87353515625,1651.0,7.0,3.0,215713.0
37305.21435546875,1652.0,9.0,4.0,215714.0
37318.555419921875,1653.0,9.0,6.0,215716.0
37331.896240234375,1654.0,6.0,7.0,215717.0
37345.2373046875,1655.0,1.0,7.0,215717.0
37358.578125,1656.0,-5.0,2.0,215712.0
37371.9189453125,1657.0,-13.0,-4.0,215706.0
37385.260009765625,1658.0,-22.0,-12.0,215698.0
37398.600830078125,1659.0,-30.0,-18.0,215692.0
37411.94189453125,1660.0,-37.0,-22.0,215688.0
37425.28271484375,1661.0,-42.0,-23.0,215687.0
37438.623779296875,1662.0,-42.0,-21.0,215689.0
37451.964599609375,1663.0,-42.0,-18.0,215692.0
37465.3056640625,1664.0,-41.0,-15.0,215695.0
37478.646484375,1665.0,-40.0,-13.0,215697.0
37491.9873046875,1666.0,-35.0,-10.0,215700.0
37505.328369140625,1667.0,-30.0,-7.0,215703.0
37518.669189453125,1668.0,-24.0,-5.0,215705.0
37532.01025390625,1669.0,-18.0,-2.0,215708.0
37545.35107421875,1670.0,-18.0,1.0,215711.0
37558.692138671875,1671.0,-21.0,5.0,215715.0
37572.032958984375,1672.0,-25.0,9.0,215719.0
37585.3740234375,1673.0,-26.0,11.0,215721.0
37598.71484375,1674.0,-25.0,11.0,215721.0
37612.0556640625,1675.0,-24.0,10.0,215720.0
37625.396728515625,1676.0,-23.0,8.0,215718.0
37638.737548828125,1677.0,-24.0,6.0,215716.0
37652.07861328125,1678.0,-27.0,2.0,215712.0
37665.41943359375,1679.0,-31.0,0.0,215710.0
37678.760498046875,1680.0,-34.0,-1.0,215709.0
37692.101318359375,1681.0,-36.0,-1.0,215709.0
37705.4423828125,1682.0,-35.0,-2.0,215708.0
37718.783203125,1683.0,-35.0,-5.0,215705.0
37732.1240234375,1684.0,-34.0,-9.0,215701.0
37745.465087890625,1685.0,-32.0,-12.0,215698.0
37758.805908203125,1686.0,-28.0,-13.0,215697.0
37772.14697265625,1687.0,-25.0,-12.0,215698.0
37785.48779296875,1688.0,-24.0,-7.0,215703.0
37798.828857421875,1689.0,-22.0,0.0,215710.0
37812.169677734375,1690.0,-19.0,6.0,215716.0
37825.5107421875,1691.0,-15.0,8.0,215718.0
37838.8515625,1692.0,-15.0,10.0,215720.0
37852.1923828125,1693.0,-15.0,11.0,215721.0
37865.533447265625,1694.0,-15.0,10.0,215720.0
37878.874267578125,1695.0,-15.0,9.0,215719.0
37892.21533203125,1696.0,-14.0,8.0,215718.0
37905.55615234375,1697.0,-12.0,7.0,215717.0
37918.897216796875,1698.0,-10.0,7.0,215717.0
37932.238037109375,1699.0,-9.0,7.0,215717.0
37945.5791015625,1700.0,-9.0,6.0,215716.0
37958.919921875,1701.0,-8.0,4.0,215714.0
37972.2607421875,1702.0,-7.0,2.0,215712.0
37985.601806640625,1703.0,-7.0,1.0,215711.0
37998.942626953125,1704.0,-7.0,1.0,215711.0
38012.28369140625,1705.0,-10.0,1.0,215711.0
38025.62451171875,1706.0,-13.0,4.0,215714.0
38038.965576171875,1707.0,-14.0,6.0,215716.0
38052.306396484375,1708.0,-13.0,11.0,215721.0
38065.6474609375,1709.0,-11.0,16.0,215726.0
38078.98828125,1710.0,-10.0,22.0,215732.0
38092.3291015625,1711.0,-10.0,25.0,215735.0
38105.670166015625,1712.0,-9.0,26.0,215736.0
38119.010986328125,1713.0,-12.0,21.0,215731.0
38132.35205078125,1714.0,-18.0,13.0,215723.0
38145.69287109375,1715.0,-28.0,4.0,215714.0
38159.033935546875,1716.0,-40.0,-5.0,215705.0
38172.374755859375,1717.0,-49.0,-13.0,215697.0
38185.7158203125,1718.0,-55.0,-19.0,215691.0
38199.056640625,1719.0,-59.0,-24.0,215686.0
38212.3974609375,1720.0,-59.0,-25.0,215685.0
38225.738525390625,1721.0,-56.0,-25.0,215685.0
38239.079345703125,1722.0,-52.0,-25.0,215685.0
38252.42041015625,1723.0,-47.0,-25.0,215685.0
38265.76123046875,1724.0,-43.0,-21.0,215689.0
38279.102294921875,1725.0,-36.0,-17.0,215693.0
38292.443115234375,1726.0,-29.0,-13.0,215697.0
38305.7841796875,1727.0,-21.0,-9.0,215701.0
38319.125,1728.0,-15.0,-4.0,215706.0
38332.4658203125,1729.0,-10.0,3.0,215713.0
38345.806884765625,1730.0,-6.0,9.0,215719.0
38359.147705078125,1731.0,-3.0,14.0,215724.0
38372.48876953125,1732.0,-2.0,16.0,215726.0
38385.82958984375,1733.0,-5.0,15.0,215725.0
38399.170654296875,1734.0,-11.0,11.0,215721.0
38412.511474609375,1735.0,-17.0,6.0,215716.0
38425.8525390625,1736.0,-24.0,2.0,215712.0
38439.193359375,1737.0,-30.0,0.0,215710.0
38452.5341796875,1738.0,-33.0,-2.0,215708.0
38465.875244140625,1739.0,-33.0,-2.0,215708.0
38479.216064453125,1740.0,-34.0,-2.0,215708.0
38492.55712890625,1741.0,-34.0,-1.0,215709.0
38505.89794921875,1742.0,-33.0,1.0,215711.0
38519.239013671875,1743.0,-30.0,5.0,215715.0
38532.579833984375,1744.0,-23.0,9.0,215719.0
38545.9208984375,1745.0,-17.0,12.0,215722.0
38559.26171875,1746.0,-13.0,13.0,215723.0
38572.6025390625,1747.0,-12.0,12.0,215722.0
38585.943603515625,1748.0,-13.0,12.0,215722.0
38599.284423828125,1749.0,-13.0,12.0,215722.0
38612.62548828125,1750.0,-13.0,11.0,215721.0
38625.96630859375,1751.0,-11.0,10.0,215720.0
38639.307373046875,1752.0,-11.0,9.0,215719.0
38652.648193359375,1753.0,-10.0,8.0,215718.0
38665.9892578125,1754.0,-7.0,6.0,215716.0
38679.330078125,1755.0,-5.0,4.0,215714.0
38692.6708984375,1756.0,-5.0,3.0,215713.0
38706.011962890625,1757.0,-4.0,3.0,215713.0
38719.352783203125,1758.0,-3.0,2.0,215712.0
38732.69384765625,1759.0,-3.0,3.0,215713.0
38746.03466796875,1760.0,-2.0,5.0,215715.0
38759.375732421875,1761.0,0.0,7.0,215717.0
38772.716552734375,1762.0,3.0,7.0,215717.0
38786.0576171875,1763.0,6.0,7.0,215717.0
38799.3984375,1764.0,7.0,6.0,215716.0
38812.7392578125,1765.0,7.0,7.0,215717.0
38826.080322265625,1766.0,5.0,8.0,215718.0
38839.421142578125,1767.0,-1.0,8.0,215718.0
38852.76220703125,1768.0,-11.0,7.0,215717.0
38866.10302734375,1769.0,-24.0,4.0,215714.0
38879.444091796875,1770.0,-36.0,0.0,215710.0
38892.784912109375,1771.0,-48.0,-5.0,215705.0
38906.1259765625,1772.0,-57.0,-9.0,215701.0
38919.466796875,1773.0,-63.0,-10.0,215700.0
38932.8076171875,1774.0,-66.0,-10.0,215700.0
38946.148681640625,1775.0,-63.0,-9.0,215701.0
38959.489501953125,1776.0,-57.0,-6.0,215704.0
38972.83056640625,1777.0,-51.0,-4.0,215706.0
38986.17138671875,1778.0,-43.0,1.0,215711.0
38999.512451171875,1779.0,-34.0,6.0,215716.0
39012.853271484375,1780.0,-28.0,11.0,215721.0
39026.1943359375,1781.0,-22.0,17.0,215727.0
39039.53515625,1782.0,-14.0,20.0,215730.0
39052.8759765625,1783.0,-5.0,21.0,215731.0
39066.217041015625,1784.0,3.0,22.0,215732.0
39079.557861328125,1785.0,7.0,24.0,215734.0
39092.89892578125,1786.0,6.0,25.0,215735.0
39106.23974609375,1787.0,3.0,23.0,215733.0
39119.580810546875,1788.0,-2.0,16.0,215726.0
39132.921630859375,1789.0,-8.0,9.0,215719.0
39146.2626953125,1790.0,-15.0,2.0,215712.0
39159.603515625,1791.0,-22.0,-3.0,215707.0
39172.9443359375,1792.0,-26.0,-6.0,215704.0
39186.285400390625,1793.0,-25.0,-8.0,215702.0
39199.626220703125,1794.0,-21.0,-8.0,215702.0
39212.96728515625,1795.0,-14.0,-7.0,215703.0
39226.30810546875,1796.0,-6.0,-5.0,215705.0
39239.649169921875,1797.0,1.0,-3.0,215707.0
39252.989990234375,1798.0,8.0,0.0,215710.0
39266.3310546875,1799.0,15.0,4.0,215714.0
39279.671875,1800.0,22.0,7.0,215717.0
39293.0126953125,1801.0,25.0,12.0,215722.0
39306.353759765625,1802.0,27.0,15.0,215725.0
39319.694580078125,1803.0,28.0,18.0,215728.0
39333.03564453125,1804.0,30.0,19.0,215729.0
39346.37646484375,1805.0,29.0,20.0,215730.0
39359.717529296875,1806.0,27.0,20.0,215730.0
39373.058349609375,1807.0,26.0,22.0,215732.0
39386.3994140625,1808.0,23.0,24.0,215734.0
39399.740234375,1809.0,20.0,26.0,215736.0
39413.0810546875,1810.0,18.0,26.0,215736.0
39426.422119140625,1811.0,15.0,24.0,215734.0
39439.762939453125,1812.0,10.0,21.0,215731.0
39453.10400390625,1813.0,7.0,17.0,215727.0
39466.44482421875,1814.0,5.0,13.0,215723.0
39479.785888671875,1815.0,4.0,13.0,215723.0
39493.126708984375,1816.0,3.0,15.0,215725.0
39506.4677734375,1817.0,4.0,19.0,215729.0
39519.80859375,1818.0,6.0,24.0,215734.0
39533.1494140625,1819.0,7.0,27.0,215737.0
39546.490478515625,1820.0,7.0,31.0,215741.0
39559.831298828125,1821.0,6.0,33.0,215743.0
39573.17236328125,1822.0,6.0,31.0,215741.0
39586.51318359375,1823.0,4.0,28.0,215738.0
39599.854248046875,1824.0,-2.0,23.0,215733.0
39613.195068359375,1825.0,-12.0,15.0,215725.0
39626.5361328125,1826.0,-24.0,7.0,215717.0
39639.876953125,1827.0,-36.0,-2.0,215708.0
39653.2177734375,1828.0,-46.0,-9.0,215701.0
39666.558837890625,1829.0,-54.0,-14.0,215696.0
39679.899658203125,1830.0,-58.0,-14.0,215696.0
39693.24072265625,1831.0,-56.0,-12.0,215698.0
39706.58154296875,1832.0,-53.0,-11.0,215699.0
39719.922607421875,1833.0,-46.0,-11.0,215699.0
39733.263427734375,1834.0,-38.0,-9.0,215701.0
39746.6044921875,1835.0,-28.0,-6.0,215704.0
39759.9453125,1836.0,-18.0,-1.0,215709.0
39773.2861328125,1837.0,-9.0,5.0,215715.0
39786.627197265625,1838.0,-3.0,9.0,215719.0
39799.968017578125,1839.0,3.0,11.0,215721.0
39813.30908203125,1840.0,6.0,10.0,215720.0
39826.64990234375,1841.0,6.0,7.0,215717.0
39839.990966796875,1842.0,3.0,4.0,215714.0
39853.331787109375,1843.0,-2.0,1.0,215711.0
39866.6728515625,1844.0,-8.0,-2.0,215708.0
39880.013671875,1845.0,-14.0,-5.0,215705.0
39893.3544921875,1846.0,-19.0,-8.0,215702.0
39906.695556640625,1847.0,-24.0,-9.0,215701.0
39920.036376953125,1848.0,-27.0,-8.0,215702.0
39933.37744140625,1849.0,-29.0,-5.0,215705.0
39946.71826171875,1850.0,-30.0,-2.0,215708.0
39960.059326171875,1851.0,-29.0,-1.0,215709.0
39973.400146484375,1852.0,-28.0,-2.0,215708.0
39986.7412109375,1853.0,-26.0,-4.0,215706.0
40000.08203125,1854.0,-24.0,-6.0,215704.0
40013.4228515625,1855.0,-20.0,-6.0,215704.0
40026.763916015625,1856.0,-14.0,-5.0,215705.0
40040.104736328125,1857.0,-7.0,-4.0,215706.0
40053.44580078125,1858.0,1.0,-4.0,215706.0
40066.78662109375,1859.0,7.0,-2.0,215708.0
40080.127685546875,1860.0,11.0,-1.0,215709.0
40093.468505859375,1861.0,14.0,-1.0,215709.0
40106.8095703125,1862.0,15.0,-1.0,215709.0
40120.150390625,1863.0,16.0,0.0,215710.0
40133.4912109375,1864.0,16.0,1.0,215711.0
40146.832275390625,1865.0,17.0,2.0,215712.0
40160.173095703125,1866.0,19.0,3.0,215713.0
40173.51416015625,1867.0,22.0,3.0,215713.0
40186.85498046875,1868.0,26.0,3.0,215713.0
40200.196044921875,1869.0,29.0,4.0,215714.0
40213.536865234375,1870.0,30.0,5.0,215715.0
40226.8779296875,1871.0,30.0,6.0,215716.0
40240.21875,1872.0,28.0,5.0,215715.0
40253.5595703125,1873.0,28.0,2.0,215712.0
40266.900634765625,1874.0,27.0,2.0,215712.0
40280.241455078125,1875.0,25.0,4.0,215714.0
40293.58251953125,1876.0,26.0,7.0,215717.0
40306.92333984375,1877.0,27.0,9.0,215719.0
40320.264404296875,1878.0,25.0,8.0,215718.0
40333.605224609375,1879.0,20.0,5.0,215715.0
40346.9462890625,1880.0,12.0,-1.0,215709.0
40360.287109375,1881.0,0.0,-10.0,215700.0
40373.6279296875,1882.0,-13.0,-19.0,215691.0
40386.968994140625,1883.0,-24.0,-27.0,215683.0
40400.309814453125,1884.0,-31.0,-31.0,215679.0
40413.65087890625,1885.0,-33.0,-32.0,215678.0
40426.99169921875,1886.0,-34.0,-30.0,215680.0
40440.332763671875,1887.0,-31.0,-25.0,215685.0
40453.673583984375,1888.0,-25.0,-20.0,215690.0
40467.0146484375,1889.0,-19.0,-16.0,215694.0
40480.35546875,1890.0,-14.0,-13.0,215697.0
40493.6962890625,1891.0,-10.0,-12.0,215698.0
40507.037353515625,1892.0,-5.0,-11.0,215699.0
40520.378173828125,1893.0,-3.0,-9.0,215701.0
40533.71923828125,1894.0,0.0,-7.0,215703.0
40547.06005859375,1895.0,3.0,-2.0,215708.0
40560.401123046875,1896.0,6.0,4.0,215714.0
40573.741943359375,1897.0,10.0,10.0,215720.0
40587.0830078125,1898.0,12.0,15.0,215725.0
40600.423828125,1899.0,16.0,17.0,215727.0
40613.7646484375,1900.0,18.0,16.0,215726.0
40627.105712890625,1901.0,18.0,14.0,215724.0
40640.446533203125,1902.0,16.0,10.0,215720.0
40653.78759765625,1903.0,14.0,6.0,215716.0
40667.12841796875,1904.0,11.0,5.0,215715.0
40680.469482421875,1905.0,9.0,6.0,215716.0
40693.810302734375,1906.0,7.0,9.0,215719.0
40707.1513671875,1907.0,7.0,12.0,215722.0
40720.4921875,1908.0,7.0,15.0,215725.0
40733.8330078125,1909.0,8.0,17.0,215727.0
40747.174072265625,1910.0,10.0,17.0,215727.0
40760.514892578125,1911.0,12.0,18.0,215728.0
40773.85595703125,1912.0,14.0,19.0,215729.0
40787.19677734375,1913.0,13.0,18.0,215728.0
40800.537841796875,1914.0,11.0,15.0,215725.0
40813.878662109375,1915.0,8.0,10.0,215720.0
40827.2197265625,1916.0,5.0,8.0,215718.0
40840.560546875,1917.0,3.0,7.0,215717.0
40853.9013671875,1918.0,2.0,8.0,215718.0
40867.242431640625,1919.0,3.0,10.0,215720.0
40880.583251953125,1920.0,4.0,13.0,215723.0
40893.92431640625,1921.0,5.0,17.0,215727.0
40907.26513671875,1922.0,6.0,17.0,215727.0
40920.606201171875,1923.0,6.0,15.0,215725.0
40933.947021484375,1924.0,4.0,12.0,215722.0
40947.2880859375,1925.0,2.0,9.0,215719.0
40960.62890625,1926.0,0.0,6.0,215716.0
40973.9697265625,1927.0,1.0,4.0,215714.0
40987.310791015625,1928.0,1.0,3.0,215713.0
41000.651611328125,1929.0,2.0,3.0,215713.0
41013.99267578125,1930.0,4.0,4.0,215714.0
41027.33349609375,1931.0,7.0,5.0,215715.0
41040.674560546875,1932.0,8.0,8.0,215718.0
41054.015380859375,1933.0,5.0,8.0,215718.0
41067.3564453125,1934.0,0.0,3.0,215713.0
41080.697265625,1935.0,-9.0,-6.0,215704.0
41094.0380859375,1936.0,-20.0,-15.0,215695.0
41107.379150390625,1937.0,-31.0,-20.0,215690.0
41120.719970703125,1938.0,-41.0,-23.0,215687.0
41134.06103515625,1939.0,-45.0,-23.0,215687.0
41147.40185546875,1940.0,-46.0,-22.0,215688.0
41160.742919921875,1941.0,-45.0,-20.0,215690.0
41174.083740234375,1942.0,-43.0,-20.0,215690.0
41187.4248046875,1943.0,-36.0,-18.0,215692.0
41200.765625,1944.0,-28.0,-14.0,215696.0
41214.1064453125,1945.0,-19.0,-8.0,215702.0
41227.447509765625,1946.0,-11.0,-2.0,215708.0
41240.788330078125,1947.0,-4.0,3.0,215713.0
41254.12939453125,1948.0,3.0,8.0,215718.0
41267.47021484375,1949.0,7.0,13.0,215723.0
41280.811279296875,1950.0,10.0,16.0,215726.0
41294.152099609375,1951.0,11.0,16.0,215726.0
41307.4931640625,1952.0,11.0,15.0,215725.0
41320.833984375,1953.0,9.0,12.0,215722.0
41334.1748046875,1954.0,5.0,8.0,215718.0
41347.515869140625,1955.0,1.0,4.0,215714.0
41360.856689453125,1956.0,-4.0,0.0,215710.0
41374.19775390625,1957.0,-7.0,-2.0,215708.0
41387.53857421875,1958.0,-10.0,-3.0,215707.0
41400.879638671875,1959.0,-12.0,-3.0,215707.0
41414.220458984375,1960.0,-14.0,-2.0,215708.0
41427.5615234375,1961.0,-15.0,-1.0,215709.0
41440.90234375,1962.0,-14.0,-1.0,215709.0
41454.2431640625,1963.0,-12.0,-1.0,215709.0
41467.584228515625,1964.0,-9.0,-2.0,215708.0
41480.925048828125,1965.0,-7.0,-2.0,215708.0
41494.26611328125,1966.0,-5.0,0.0,215710.0
41507.60693359375,1967.0,-4.0,2.0,215712.0
41520.947998046875,1968.0,-4.0,4.0,215714.0
41534.288818359375,1969.0,-3.0,6.0,215716.0
41547.6298828125,1970.0,-3.0,9.0,215719.0
41560.970703125,1971.0,-3.0,13.0,215723.0
41574.3115234375,1972.0,-2.0,15.0,215725.0
41587.652587890625,1973.0,-2.0,14.0,215724.0
41600.993408203125,1974.0,-2.0,10.0,215720.0
41614.33447265625,1975.0,-3.0,7.0,215717.0
41627.67529296875,1976.0,-3.0,5.0,215715.0
41641.016357421875,1977.0,-2.0,5.0,215715.0
41654.357177734375,1978.0,2.0,6.0,215716.0
41667.6982421875,1979.0,6.0,7.0,215717.0
41681.0390625,1980.0,11.0,8.0,215718.0
41694.3798828125,1981.0,16.0,9.0,215719.0
41707.720947265625,1982.0,19.0,10.0,215720.0
41721.061767578125,1983.0,19.0,11.0,215721.0
41734.40283203125,1984.0,17.0,11.0,215721.0
41747.74365234375,1985.0,11.0,6.0,215716.0
41761.084716796875,1986.0,1.0,0.0,215710.0
41774.425537109375,1987.0,-13.0,-6.0,215704.0
41787.7666015625,1988.0,-27.0,-12.0,215698.0
41801.107421875,1989.0,-37.0,-16.0,215694.0
41814.4482421875,1990.0,-43.0,-19.0,215691.0
41827.789306640625,1991.0,-46.0,-21.0,215689.0
41841.130126953125,1992.0,-46.0,-21.0,215689.0
41854.47119140625,1993.0,-44.0,-20.0,215690.0
41867.81201171875,1994.0,-38.0,-18.0,215692.0
41881.153076171875,1995.0,-31.0,-15.0,215695.0
41894.493896484375,1996.0,-23.0,-12.0,215698.0
41907.8349609375,1997.0,-16.0,-6.0,215704.0
41921.17578125,1998.0,-9.0,1.0,215711.0
41934.5166015625,1999.0,-2.0,11.0,215721.0
41947.857666015625,2000.0,3.0,21.0,215731.0
41961.198486328125,2001.0,6.0,27.0,215737.0
41974.53955078125,2002.0,8.0,29.0,215739.0
41987.88037109375,2003.0,7.0,26.0,215736.0
42001.221435546875,2004.0,3.0,20.0,215730.0
42014.562255859375,2005.0,-4.0,12.0,215722.0
42027.9033203125,2006.0,-10.0,6.0,215716.0
42041.244140625,2007.0,-16.0,2.0,215712.0
42054.5849609375,2008.0,-21.0,0.0,215710.0
42067.926025390625,2009.0,-23.0,-2.0,215708.0
42081.266845703125,2010.0,-24.0,-5.0,215705.0
42094.60791015625,2011.0,-25.0,-7.0,215703.0
42107.94873046875,2012.0,-27.0,-7.0,215703.0
42121.289794921875,2013.0,-28.0,-6.0,215704.0
42134.630615234375,2014.0,-27.0,-5.0,215705.0
42147.9716796875,2015.0,-23.0,-3.0,215707.0
42161.3125,2016.0,-18.0,0.0,215710.0
42174.6533203125,2017.0,-14.0,2.0,215712.0
42187.994384765625,2018.0,-10.0,3.0,215713.0
42201.335205078125,2019.0,-7.0,4.0,215714.0
42214.67626953125,2020.0,-5.0,6.0,215716.0
42228.01708984375,2021.0,-5.0,8.0,215718.0
42241.358154296875,2022.0,-2.0,10.0,215720.0
42254.698974609375,2023.0,-1.0,11.0,215721.0
42268.0400390625,2024.0,-1.0,13.0,215723.0
42281.380859375,2025.0,-2.0,13.0,215723.0
42294.7216796875,2026.0,-2.0,15.0,215725.0
42308.062744140625,2027.0,-2.0,17.0,215727.0
42321.403564453125,2028.0,-2.0,19.0,215729.0
42334.74462890625,2029.0,-1.0,21.0,215731.0
42348.08544921875,2030.0,0.0,19.0,215729.0
42361.426513671875,2031.0,3.0,17.0,215727.0
42374.767333984375,2032.0,5.0,15.0,215725.0
42388.1083984375,2033.0,6.0,13.0,215723.0
42401.44921875,2034.0,8.0,13.0,215723.0
42414.7900390625,2035.0,11.0,14.0,215724.0
42428.131103515625,2036.0,12.0,17.0,215727.0
42441.471923828125,2037.0,10.0,19.0,215729.0
42454.81298828125,2038.0,3.0,17.0,215727.0
42468.15380859375,2039.0,-8.0,11.0,215721.0
42481.494873046875,2040.0,-22.0,3.0,215713.0
42494.835693359375,2041.0,-36.0,-5.0,215705.0
42508.1767578125,2042.0,-49.0,-13.0,215697.0
42521.517578125,2043.0,-57.0,-19.0,215691.0
42534.8583984375,2044.0,-59.0,-23.0,215687.0
42548.199462890625,2045.0,-58.0,-25.0,215685.0
42561.540283203125,2046.0,-54.0,-22.0,215688.0
42574.88134765625,2047.0,-49.0,-18.0,215692.0
42588.22216796875,2048.0,-40.0,-12.0,215698.0
42601.563232421875,2049.0,-32.0,-7.0,215703.0
42614.904052734375,2050.0,-22.0,-3.0,215707.0
42628.2451171875,2051.0,-15.0,1.0,215711.0
42641.5859375,2052.0,-8.0,6.0,215716.0
42654.9267578125,2053.0,-3.0,11.0,215721.0
42668.267822265625,2054.0,0.0,18.0,215728.0
42681.608642578125,2055.0,1.0,23.0,215733.0
42694.94970703125,2056.0,0.0,24.0,215734.0
42708.29052734375,2057.0,-2.0,20.0,215730.0
42721.631591796875,2058.0,-7.0,15.0,215725.0
42734.972412109375,2059.0,-13.0,8.0,215718.0
42748.3134765625,2060.0,-19.0,1.0,215711.0
42761.654296875,2061.0,-22.0,-2.0,215708.0
42774.9951171875,2062.0,-26.0,-2.0,215708.0
42788.336181640625,2063.0,-31.0,0.0,215710.0
42801.677001953125,2064.0,-33.0,1.0,215711.0
42815.01806640625,2065.0,-34.0,0.0,215710.0
42828.35888671875,2066.0,-33.0,-2.0,215708.0
42841.699951171875,2067.0,-29.0,-4.0,215706.0
42855.040771484375,2068.0,-25.0,-5.0,215705.0
42868.3818359375,2069.0,-19.0,-5.0,215705.0
42881.72265625,2070.0,-11.0,-4.0,215706.0
42895.0634765625,2071.0,-6.0,-2.0,215708.0
42908.404541015625,2072.0,-3.0,-1.0,215709.0
42921.745361328125,2073.0,0.0,0.0,215710.0
42935.08642578125,2074.0,2.0,0.0,215710.0
42948.42724609375,2075.0,4.0,0.0,215710.0
42961.768310546875,2076.0,3.0,-1.0,215709.0
42975.109130859375,2077.0,1.0,-2.0,215708.0
42988.4501953125,2078.0,0.0,-3.0,215707.0
43001.791015625,2079.0,-1.0,-2.0,215708.0
43015.1318359375,2080.0,0.0,1.0,215711.0
43028.472900390625,2081.0,1.0,6.0,215716.0
43041.813720703125,2082.0,3.0,11.0,215721.0
43055.15478515625,2083.0,5.0,14.0,215724.0
43068.49560546875,2084.0,7.0,16.0,215726.0
43081.836669921875,2085.0,7.0,17.0,215727.0
43095.177490234375,2086.0,6.0,19.0,215729.0
43108.5185546875,2087.0,7.0,19.0,215729.0
43121.859375,2088.0,7.0,20.0,215730.0
43135.2001953125,2089.0,5.0,21.0,215731.0
43148.541259765625,2090.0,3.0,22.0,215732.0
43161.882080078125,2091.0,0.0,20.0,215730.0
43175.22314453125,2092.0,-4.0,15.0,215725.0
43188.56396484375,2093.0,-11.0,9.0,215719.0
43201.905029296875,2094.0,-17.0,1.0,215711.0
43215.245849609375,2095.0,-23.0,-8.0,215702.0
43228.5869140625,2096.0,-29.0,-16.0,215694.0
43241.927734375,2097.0,-32.0,-21.0,215689.0
43255.2685546875,2098.0,-31.0,-23.0,215687.0
43268.609619140625,2099.0,-28.0,-22.0,215688.0
43281.950439453125,2100.0,-22.0,-19.0,215691.0
43295.29150390625,2101.0,-15.0,-12.0,215698.0
43308.63232421875,2102.0,-10.0,-3.0,215707.0
43321.973388671875,2103.0,-3.0,7.0,215717.0
43335.314208984375,2104.0,4.0,14.0,215724.0
43348.6552734375,2105.0,11.0,20.0,215730.0
43361.99609375,2106.0,19.0,22.0,215732.0
43375.3369140625,2107.0,26.0,22.0,215732.0
43388.677978515625,2108.0,30.0,21.0,215731.0
43402.018798828125,2109.0,33.0,18.0,215728.0
43415.35986328125,2110.0,34.0,15.0,215725.0
43428.70068359375,2111.0,32.0,13.0,215723.0
43442.041748046875,2112.0,28.0,9.0,215719.0
43455.382568359375,2113.0,24.0,6.0,215716.0
43468.7236328125,2114.0,19.0,1.0,215711.0
43482.064453125,2115.0,13.0,-3.0,215707.0
43495.4052734375,2116.0,7.0,-6.0,215704.0
43508.746337890625,2117.0,3.0,-9.0,215701.0
43522.087158203125,2118.0,0.0,-11.0,215699.0
43535.42822265625,2119.0,-3.0,-11.0,215699.0
43548.76904296875,2120.0,-5.0,-10.0,215700.0
43562.110107421875,2121.0,-6.0,-9.0,215701.0
43575.450927734375,2122.0,-7.0,-7.0,215703.0
43588.7919921875,2123.0,-8.0,-5.0,215705.0
43602.1328125,2124.0,-8.0,-3.0,215707.0
43615.4736328125,2125.0,-7.0,-3.0,215707.0
43628.814697265625,2126.0,-5.0,-3.0,215707.0
43642.155517578125,2127.0,-3.0,-1.0,215709.0
43655.49658203125,2128.0,1.0,1.0,215711.0
43668.83740234375,2129.0,6.0,3.0,215713.0
43682.178466796875,2130.0,10.0,3.0,215713.0
43695.519287109375,2131.0,12.0,3.0,215713.0
43708.8603515625,2132.0,13.0,1.0,215711.0
43722.201171875,2133.0,16.0,-1.0,215709.0
43735.5419921875,2134.0,18.0,-1.0,215709.0
43748.883056640625,2135.0,20.0,0.0,215710.0
43762.223876953125,2136.0,21.0,0.0,215710.0
43775.56494140625,2137.0,23.0,3.0,215713.0
43788.90576171875,2138.0,24.0,6.0,215716.0
43802.246826171875,2139.0,24.0,9.0,215719.0
43815.587646484375,2140.0,22.0,10.0,215720.0
43828.9287109375,2141.0,20.0,11.0,215721.0
43842.26953125,2142.0,20.0,10.0,215720.0
43855.6103515625,2143.0,18.0,6.0,215716.0
43868.951416015625,2144.0,11.0,0.0,215710.0
43882.292236328125,2145.0,1.0,-9.0,215701.0
43895.63330078125,2146.0,-13.0,-19.0,215691.0
43908.97412109375,2147.0,-29.0,-29.0,215681.0
43922.315185546875,2148.0,-45.0,-37.0,215673.0
43935.656005859375,2149.0,-58.0,-43.0,215667.0
43948.9970703125,2150.0,-65.0,-45.0,215665.0
43962.337890625,2151.0,-64.0,-44.0,215666.0
43975.6787109375,2152.0,-60.0,-39.0,215671.0
43989.019775390625,2153.0,-56.0,-34.0,215676.0
44002.360595703125,2154.0,-51.0,-28.0,215682.0
44015.70166015625,2155.0,-46.0,-21.0,215689.0
44029.04248046875,2156.0,-41.0,-14.0,215696.0
44042.383544921875,2157.0,-36.0,-8.0,215702.0
44055.724365234375,2158.0,-30.0,-1.0,215709.0
44069.0654296875,2159.0,-24.0,4.0,215714.0
44082.40625,2160.0,-17.0,7.0,215717.0
44095.7470703125,2161.0,-13.0,7.0,215717.0
44109.088134765625,2162.0,-12.0,4.0,215714.0
44122.428955078125,2163.0,-14.0,1.0,215711.0
44135.77001953125,2164.0,-19.0,-3.0,215707.0
44149.11083984375,2165.0,-25.0,-7.0,215703.0
44162.451904296875,2166.0,-29.0,-11.0,215699.0
44175.792724609375,2167.0,-33.0,-14.0,215696.0
44189.1337890625,2168.0,-35.0,-14.0,215696.0
44202.474609375,2169.0,-37.0,-13.0,215697.0
44215.8154296875,2170.0,-35.0,-10.0,215700.0
44229.156494140625,2171.0,-31.0,-6.0,215704.0
44242.497314453125,2172.0,-26.0,-2.0,215708.0
44255.83837890625,2173.0,-22.0,2.0,215712.0
44269.17919921875,2174.0,-16.0,6.0,215716.0
44282.520263671875,2175.0,-11.0,6.0,215716.0
44295.861083984375,2176.0,-5.0,5.0,215715.0
44309.2021484375,2177.0,-1.0,4.0,215714.0
44322.54296875,2178.0,0.0,2.0,215712.0
44335.8837890625,2179.0,-1.0,-1.0,215709.0
44349.224853515625,2180.0,-3.0,-3.0,215707.0
44362.565673828125,2181.0,-5.0,-3.0,215707.0
44375.90673828125,2182.0,-6.0,-2.0,215708.0
44389.24755859375,2183.0,-5.0,-3.0,215707.0
44402.588623046875,2184.0,-1.0,-4.0,215706.0
44415.929443359375,2185.0,4.0,-4.0,215706.0
44429.2705078125,2186.0,9.0,-4.0,215706.0
44442.611328125,2187.0,15.0,-5.0,215705.0
44455.9521484375,2188.0,21.0,-7.0,215703.0
44469.293212890625,2189.0,25.0,-7.0,215703.0
44482.634033203125,2190.0,27.0,-6.0,215704.0
44495.97509765625,2191.0,26.0,-2.0,215708.0
44509.31591796875,2192.0,25.0,-1.0,215709.0
44522.656982421875,2193.0,22.0,1.0,215711.0
44535.997802734375,2194.0,19.0,2.0,215712.0
44549.3388671875,2195.0,19.0,2.0,215712.0
44562.6796875,2196.0,16.0,1.0,215711.0
44576.0205078125,2197.0,11.0,-3.0,215707.0
44589.361572265625,2198.0,3.0,-10.0,215700.0
44602.702392578125,2199.0,-7.0,-16.0,215694.0
44616.04345703125,2200.0,-18.0,-22.0,215688.0
44629.38427734375,2201.0,-27.0,-26.0,215684.0
44642.725341796875,2202.0,-35.0,-31.0,215679.0
44656.066162109375,2203.0,-40.0,-33.0,215677.0
44669.4072265625,2204.0,-44.0,-34.0,215676.0
44682.748046875,2205.0,-42.0,-33.0,215677.0
44696.0888671875,2206.0,-38.0,-32.0,215678.0
44709.429931640625,2207.0,-31.0,-30.0,215680.0
44722.770751953125,2208.0,-24.0,-26.0,215684.0
44736.11181640625,2209.0,-17.0,-22.0,215688.0
44749.45263671875,2210.0,-10.0,-18.0,215692.0
44762.793701171875,2211.0,-2.0,-12.0,215698.0
44776.134521484375,2212.0,5.0,-8.0,215702.0
44789.4755859375,2213.0,9.0,-5.0,215705.0
44802.81640625,2214.0,9.0,-3.0,215707.0
44816.1572265625,2215.0,7.0,-3.0,215707.0
44829.498291015625,2216.0,3.0,-5.0,215705.0
44842.839111328125,2217.0,-2.0,-8.0,215702.0
44856.18017578125,2218.0,-9.0,-8.0,215702.0
44869.52099609375,2219.0,-15.0,-8.0,215702.0
44882.862060546875,2220.0,-21.0,-8.0,215702.0
44896.202880859375,2221.0,-27.0,-10.0,215700.0
44909.5439453125,2222.0,-33.0,-13.0,215697.0
44922.884765625,2223.0,-33.0,-18.0,215692.0
44936.2255859375,2224.0,-32.0,-22.0,215688.0
44949.566650390625,2225.0,-30.0,-24.0,215686.0
44962.907470703125,2226.0,-29.0,-26.0,215684.0
44976.24853515625,2227.0,-30.0,-25.0,215685.0
44989.58935546875,2228.0,-28.0,-23.0,215687.0
45002.930419921875,2229.0,-24.0,-18.0,215692.0
45016.271240234375,2230.0,-20.0,-11.0,215699.0
45029.6123046875,2231.0,-18.0,-6.0,215704.0
45042.953125,2232.0,-17.0,-1.0,215709.0
45056.2939453125,2233.0,-17.0,5.0,215715.0
45069.635009765625,2234.0,-19.0,8.0,215718.0
45082.975830078125,2235.0,-21.0,8.0,215718.0
45096.31689453125,2236.0,-22.0,5.0,215715.0
45109.65771484375,2237.0,-22.0,1.0,215711.0
45122.998779296875,2238.0,-22.0,-2.0,215708.0
45136.339599609375,2239.0,-21.0,-5.0,215705.0
45149.6806640625,2240.0,-18.0,-7.0,215703.0
45163.021484375,2241.0,-13.0,-8.0,215702.0
45176.3623046875,2242.0,-9.0,-9.0,215701.0
45189.703369140625,2243.0,-6.0,-9.0,215701.0
45203.044189453125,2244.0,-2.0,-10.0,215700.0
45216.38525390625,2245.0,2.0,-12.0,215698.0
45229.72607421875,2246.0,6.0,-14.0,215696.0
45243.067138671875,2247.0,11.0,-16.0,215694.0
45256.407958984375,2248.0,14.0,-18.0,215692.0
45269.7490234375,2249.0,16.0,-21.0,215689.0
45283.08984375,2250.0,16.0,-21.0,215689.0
45296.4306640625,2251.0,17.0,-19.0,215691.0
45309.771728515625,2252.0,14.0,-15.0,215695.0
45323.112548828125,2253.0,6.0,-14.0,215696.0
45336.45361328125,2254.0,-8.0,-16.0,215694.0
45349.79443359375,2255.0,-24.0,-20.0,215690.0
45363.135498046875,2256.0,-39.0,-27.0,215683.0
45376.476318359375,2257.0,-50.0,-33.0,215677.0
45389.8173828125,2258.0,-60.0,-38.0,215672.0
45403.158203125,2259.0,-64.0,-38.0,215672.0
45416.4990234375,2260.0,-64.0,-36.0,215674.0
45429.840087890625,2261.0,-62.0,-34.0,215676.0
45443.180908203125,2262.0,-59.0,-32.0,215678.0
45456.52197265625,2263.0,-53.0,-31.0,215679.0
45469.86279296875,2264.0,-44.0,-29.0,215681.0
45483.203857421875,2265.0,-35.0,-27.0,215683.0
45496.544677734375,2266.0,-26.0,-25.0,215685.0
45509.8857421875,2267.0,-20.0,-22.0,215688.0
45523.2265625,2268.0,-15.0,-19.0,215691.0
45536.5673828125,2269.0,-9.0,-16.0,215694.0
45549.908447265625,2270.0,-6.0,-13.0,215697.0
45563.249267578125,2271.0,-4.0,-11.0,215699.0
45576.59033203125,2272.0,-4.0,-10.0,215700.0
45589.93115234375,2273.0,-4.0,-12.0,215698.0
45603.272216796875,2274.0,-9.0,-14.0,215696.0
45616.613037109375,2275.0,-15.0,-18.0,215692.0
45629.9541015625,2276.0,-21.0,-23.0,215687.0
45643.294921875,2277.0,-27.0,-27.0,215683.0
45656.6357421875,2278.0,-31.0,-25.0,215685.0
45669.976806640625,2279.0,-33.0,-22.0,215688.0
45683.317626953125,2280.0,-34.0,-19.0,215691.0
45696.65869140625,2281.0,-32.0,-15.0,215695.0
45709.99951171875,2282.0,-30.0,-15.0,215695.0
45723.340576171875,2283.0,-28.0,-15.0,215695.0
45736.681396484375,2284.0,-25.0,-15.0,215695.0
45750.0224609375,2285.0,-24.0,-15.0,215695.0
45763.36328125,2286.0,-22.0,-14.0,215696.0
45776.7041015625,2287.0,-20.0,-11.0,215699.0
45790.045166015625,2288.0,-18.0,-8.0,215702.0
45803.385986328125,2289.0,-16.0,-7.0,215703.0
45816.72705078125,2290.0,-13.0,-7.0,215703.0
45830.06787109375,2291.0,-11.0,-7.0,215703.0
45843.408935546875,2292.0,-12.0,-6.0,215704.0
45856.749755859375,2293.0,-11.0,-5.0,215705.0
45870.0908203125,2294.0,-9.0,-4.0,215706.0
45883.431640625,2295.0,-6.0,-1.0,215709.0
45896.7724609375,2296.0,-3.0,5.0,215715.0
45910.113525390625,2297.0,0.0,9.0,215719.0
45923.454345703125,2298.0,1.0,10.0,215720.0
45936.79541015625,2299.0,2.0,8.0,215718.0
45950.13623046875,2300.0,3.0,5.0,215715.0
45963.477294921875,2301.0,4.0,1.0,215711.0
45976.818115234375,2302.0,5.0,-1.0,215709.0
45990.1591796875,2303.0,7.0,-2.0,215708.0
46003.5,2304.0,9.0,-1.0,215709.0
46016.8408203125,2305.0,11.0,-1.0,215709.0
46030.181884765625,2306.0,12.0,-1.0,215709.0
46043.522705078125,2307.0,11.0,-1.0,215709.0
46056.86376953125,2308.0,9.0,-2.0,215708.0
46070.20458984375,2309.0,3.0,-4.0,215706.0
46083.545654296875,2310.0,-8.0,-9.0,215701.0
46096.886474609375,2311.0,-22.0,-15.0,215695.0
46110.2275390625,2312.0,-38.0,-23.0,215687.0
46123.568359375,2313.0,-52.0,-29.0,215681.0
46136.9091796875,2314.0,-60.0,-35.0,215675.0
46150.250244140625,2315.0,-65.0,-38.0,215672.0
46163.591064453125,2316.0,-66.0,-39.0,215671.0
46176.93212890625,2317.0,-61.0,-39.0,215671.0
46190.27294921875,2318.0,-53.0,-36.0,215674.0
46203.614013671875,2319.0,-44.0,-31.0,215679.0
46216.954833984375,2320.0,-35.0,-23.0,215687.0
46230.2958984375,2321.0,-28.0,-16.0,215694.0
46243.63671875,2322.0,-21.0,-10.0,215700.0
46256.9775390625,2323.0,-15.0,-6.0,215704.0
46270.318603515625,2324.0,-10.0,-3.0,215707.0
46283.659423828125,2325.0,-7.0,-2.0,215708.0
46297.00048828125,2326.0,-4.0,-3.0,215707.0
46310.34130859375,2327.0,1.0,-6.0,215704.0
46323.682373046875,2328.0,8.0,-8.0,215702.0
46337.023193359375,2329.0,12.0,-8.0,215702.0
46350.3642578125,2330.0,12.0,-9.0,215701.0
46363.705078125,2331.0,10.0,-11.0,215699.0
46377.0458984375,2332.0,4.0,-13.0,215697.0
46390.386962890625,2333.0,-2.0,-16.0,215694.0
46403.727783203125,2334.0,-6.0,-19.0,215691.0
46417.06884765625,2335.0,-9.0,-21.0,215689.0
46430.40966796875,2336.0,-10.0,-20.0,215690.0
46443.750732421875,2337.0,-11.0,-17.0,215693.0
46457.091552734375,2338.0,-11.0,-14.0,215696.0
46470.4326171875,2339.0,-11.0,-10.0,215700.0
46483.7734375,2340.0,-9.0,-6.0,215704.0
46497.1142578125,2341.0,-6.0,-4.0,215706.0
46510.455322265625,2342.0,-2.0,-5.0,215705.0
46523.796142578125,2343.0,2.0,-8.0,215702.0
46537.13720703125,2344.0,6.0,-10.0,215700.0
46550.47802734375,2345.0,10.0,-12.0,215698.0
46563.819091796875,2346.0,12.0,-11.0,215699.0
46577.159912109375,2347.0,14.0,-10.0,215700.0
46590.5009765625,2348.0,17.0,-7.0,215703.0
46603.841796875,2349.0,19.0,-5.0,215705.0
46617.1826171875,2350.0,20.0,-2.0,215708.0
46630.523681640625,2351.0,20.0,1.0,215711.0
46643.864501953125,2352.0,21.0,1.0,215711.0
46657.20556640625,2353.0,21.0,-1.0,215709.0
46670.54638671875,2354.0,22.0,-3.0,215707.0
46683.887451171875,2355.0,22.0,-4.0,215706.0
46697.228271484375,2356.0,22.0,-4.0,215706.0
46710.5693359375,2357.0,24.0,-2.0,215708.0
46723.91015625,2358.0,28.0,1.0,215711.0
46737.2509765625,2359.0,31.0,5.0,215715.0
46750.592041015625,2360.0,32.0,9.0,215719.0
46763.932861328125,2361.0,30.0,11.0,215721.0
46777.27392578125,2362.0,22.0,11.0,215721.0
46790.61474609375,2363.0,10.0,6.0,215716.0
46803.955810546875,2364.0,-6.0,-2.0,215708.0
46817.296630859375,2365.0,-22.0,-12.0,215698.0
46830.6376953125,2366.0,-38.0,-22.0,215688.0
46843.978515625,2367.0,-53.0,-26.0,215684.0
46857.3193359375,2368.0,-67.0,-26.0,215684.0
46870.660400390625,2369.0,-76.0,-23.0,215687.0
46884.001220703125,2370.0,-79.0,-20.0,215690.0
46897.34228515625,2371.0,-76.0,-16.0,215694.0
46910.68310546875,2372.0,-72.0,-15.0,215695.0
46924.024169921875,2373.0,-66.0,-16.0,215694.0
46937.364990234375,2374.0,-58.0,-17.0,215693.0
46950.7060546875,2375.0,-51.0,-16.0,215694.0
46964.046875,2376.0,-43.0,-11.0,215699.0
46977.3876953125,2377.0,-38.0,-7.0,215703.0
46990.728759765625,2378.0,-30.0,-2.0,215708.0
47004.069580078125,2379.0,-23.0,3.0,215713.0
47017.41064453125,2380.0,-16.0,5.0,215715.0
47030.75146484375,2381.0,-11.0,5.0,215715.0
47044.092529296875,2382.0,-10.0,3.0,215713.0
47057.433349609375,2383.0,-12.0,0.0,215710.0
47070.7744140625,2384.0,-17.0,-4.0,215706.0
47084.115234375,2385.0,-24.0,-7.0,215703.0
47097.4560546875,2386.0,-30.0,-10.0,215700.0
47110.797119140625,2387.0,-34.0,-13.0,215697.0
47124.137939453125,2388.0,-38.0,-17.0,215693.0
47137.47900390625,2389.0,-40.0,-21.0,215689.0
47150.81982421875,2390.0,-42.0,-22.0,215688.0
47164.160888671875,2391.0,-41.0,-23.0,215687.0
47177.501708984375,2392.0,-40.0,-22.0,215688.0
47190.8427734375,2393.0,-38.0,-18.0,215692.0
47204.18359375,2394.0,-35.0,-13.0,215697.0
47217.5244140625,2395.0,-29.0,-9.0,215701.0
47230.865478515625,2396.0,-24.0,-7.0,215703.0
47244.206298828125,2397.0,-19.0,-5.0,215705.0
47257.54736328125,2398.0,-16.0,-4.0,215706.0
47270.88818359375,2399.0,-14.0,-1.0,215709.0
47284.229248046875,2400.0,-14.0,3.0,215713.0
47297.570068359375,2401.0,-15.0,7.0,215717.0
47310.9111328125,2402.0,-15.0,11.0,215721.0
47324.251953125,2403.0,-14.0,15.0,215725.0
47337.5927734375,2404.0,-13.0,16.0,215726.0
47350.933837890625,2405.0,-11.0,16.0,215726.0
47364.274658203125,2406.0,-10.0,16.0,215726.0
47377.61572265625,2407.0,-7.0,18.0,215728.0
47390.95654296875,2408.0,-2.0,20.0,215730.0
47404.297607421875,2409.0,2.0,21.0,215731.0
47417.638427734375,2410.0,4.0,22.0,215732.0
47430.9794921875,2411.0,6.0,20.0,215730.0
47444.3203125,2412.0,7.0,19.0,215729.0
47457.6611328125,2413.0,6.0,21.0,215731.0
47471.002197265625,2414.0,4.0,23.0,215733.0
47484.343017578125,2415.0,2.0,25.0,215735.0
47497.68408203125,2416.0,1.0,25.0,215735.0
47511.02490234375,2417.0,0.0,23.0,215733.0
47524.365966796875,2418.0,-4.0,18.0,215728.0
47537.706787109375,2419.0,-10.0,10.0,215720.0
47551.0478515625,2420.0,-20.0,1.0,215711.0
47564.388671875,2421.0,-32.0,-7.0,215703.0
47577.7294921875,2422.0,-44.0,-14.0,215696.0
47591.070556640625,2423.0,-53.0,-18.0,215692.0
47604.411376953125,2424.0,-58.0,-21.0,215689.0
47617.75244140625,2425.0,-59.0,-23.0,215687.0
47631.09326171875,2426.0,-56.0,-22.0,215688.0
47644.434326171875,2427.0,-50.0,-19.0,215691.0
47657.775146484375,2428.0,-42.0,-14.0,215696.0
47671.1162109375,2429.0,-32.0,-9.0,215701.0
47684.45703125,2430.0,-22.0,-4.0,215706.0
47697.7978515625,2431.0,-13.0,0.0,215710.0
47711.138916015625,2432.0,-5.0,2.0,215712.0
47724.479736328125,2433.0,-1.0,3.0,215713.0
47737.82080078125,2434.0,-1.0,5.0,215715.0
47751.16162109375,2435.0,-1.0,5.0,215715.0
47764.502685546875,2436.0,-1.0,4.0,215714.0
47777.843505859375,2437.0,0.0,2.0,215712.0
47791.1845703125,2438.0,-1.0,1.0,215711.0
47804.525390625,2439.0,-3.0,-2.0,215708.0
47817.8662109375,2440.0,-7.0,-7.0,215703.0
47831.207275390625,2441.0,-11.0,-11.0,215699.0
47844.548095703125,2442.0,-15.0,-14.0,215696.0
47857.88916015625,2443.0,-19.0,-17.0,215693.0
47871.22998046875,2444.0,-20.0,-19.0,215691.0
47884.571044921875,2445.0,-19.0,-20.0,215690.0
47897.911865234375,2446.0,-19.0,-20.0,215690.0
47911.2529296875,2447.0,-19.0,-19.0,215691.0
47924.59375,2448.0,-17.0,-15.0,215695.0
47937.9345703125,2449.0,-10.0,-8.0,215702.0
47951.275634765625,2450.0,-5.0,-4.0,215706.0
47964.616455078125,2451.0,-1.0,-1.0,215709.0
47977.95751953125,2452.0,3.0,-1.0,215709.0
47991.29833984375,2453.0,6.0,-2.0,215708.0
48004.639404296875,2454.0,7.0,-5.0,215705.0
48017.980224609375,2455.0,8.0,-7.0,215703.0
48031.3212890625,2456.0,9.0,-9.0,215701.0
48044.662109375,2457.0,8.0,-10.0,215700.0
48058.0029296875,2458.0,8.0,-8.0,215702.0
48071.343994140625,2459.0,9.0,-7.0,215703.0
48084.684814453125,2460.0,12.0,-5.0,215705.0
48098.02587890625,2461.0,14.0,-4.0,215706.0
48111.36669921875,2462.0,15.0,-3.0,215707.0
48124.707763671875,2463.0,15.0,-4.0,215706.0
48138.048583984375,2464.0,14.0,-5.0,215705.0
48151.3896484375,2465.0,13.0,-7.0,215703.0
48164.73046875,2466.0,11.0,-9.0,215701.0
48178.0712890625,2467.0,9.0,-11.0,215699.0
48191.412353515625,2468.0,7.0,-11.0,215699.0
48204.753173828125,2469.0,6.0,-9.0,215701.0
48218.09423828125,2470.0,7.0,-8.0,215702.0
48231.43505859375,2471.0,9.0,-6.0,215704.0
48244.776123046875,2472.0,10.0,-3.0,215707.0
48258.116943359375,2473.0,11.0,2.0,215712.0
48271.4580078125,2474.0,12.0,6.0,215716.0
48284.798828125,2475.0,11.0,7.0,215717.0
48298.1396484375,2476.0,6.0,5.0,215715.0
48311.480712890625,2477.0,-4.0,-2.0,215708.0
48324.821533203125,2478.0,-16.0,-13.0,215697.0
48338.16259765625,2479.0,-28.0,-25.0,215685.0
48351.50341796875,2480.0,-36.0,-34.0,215676.0
48364.844482421875,2481.0,-41.0,-41.0,215669.0
48378.185302734375,2482.0,-40.0,-44.0,215666.0
48391.5263671875,2483.0,-39.0,-44.0,215666.0
48404.8671875,2484.0,-36.0,-38.0,215672.0
48418.2080078125,2485.0,-32.0,-29.0,215681.0
48431.549072265625,2486.0,-28.0,-19.0,215691.0
48444.889892578125,2487.0,-22.0,-9.0,215701.0
48458.23095703125,2488.0,-16.0,-3.0,215707.0
48471.57177734375,2489.0,-9.0,2.0,215712.0
48484.912841796875,2490.0,-2.0,6.0,215716.0
48498.253662109375,2491.0,3.0,9.0,215719.0
48511.5947265625,2492.0,8.0,13.0,215723.0
48524.935546875,2493.0,12.0,15.0,215725.0
48538.2763671875,2494.0,15.0,19.0,215729.0
48551.617431640625,2495.0,16.0,21.0,215731.0
48564.958251953125,2496.0,14.0,21.0,215731.0
48578.29931640625,2497.0,8.0,20.0,215730.0
48591.64013671875,2498.0,1.0,17.0,215727.0
48604.981201171875,2499.0,-7.0,14.0,215724.0
48618.322021484375,2500.0,-15.0,11.0,215721.0
48631.6630859375,2501.0,-21.0,7.0,215717.0
48645.00390625,2502.0,-25.0,4.0,215714.0
48658.3447265625,2503.0,-25.0,3.0,215713.0
48671.685791015625,2504.0,-24.0,5.0,215715.0
48685.026611328125,2505.0,-22.0,7.0,215717.0
48698.36767578125,2506.0,-21.0,7.0,215717.0
48711.70849609375,2507.0,-19.0,7.0,215717.0
48725.049560546875,2508.0,-16.0,7.0,215717.0
48738.390380859375,2509.0,-13.0,9.0,215719.0
48751.7314453125,2510.0,-9.0,12.0,215722.0
48765.072265625,2511.0,-5.0,16.0,215726.0
48778.4130859375,2512.0,-2.0,18.0,215728.0
48791.754150390625,2513.0,2.0,19.0,215729.0
48805.094970703125,2514.0,5.0,19.0,215729.0
48818.43603515625,2515.0,6.0,18.0,215728.0
48831.77685546875,2516.0,6.0,18.0,215728.0
48845.117919921875,2517.0,6.0,16.0,215726.0
48858.458740234375,2518.0,5.0,14.0,215724.0
48871.7998046875,2519.0,4.0,13.0,215723.0
48885.140625,2520.0,4.0,12.0,215722.0
48898.4814453125,2521.0,5.0,13.0,215723.0
48911.822509765625,2522.0,7.0,14.0,215724.0
48925.163330078125,2523.0,11.0,15.0,215725.0
48938.50439453125,2524.0,13.0,15.0,215725.0
48951.84521484375,2525.0,15.0,15.0,215725.0
48965.186279296875,2526.0,14.0,14.0,215724.0
48978.527099609375,2527.0,14.0,15.0,215725.0
48991.8681640625,2528.0,13.0,14.0,215724.0
49005.208984375,2529.0,12.0,12.0,215722.0
49018.5498046875,2530.0,7.0,8.0,215718.0
49031.890869140625,2531.0,-4.0,4.0,215714.0
49045.231689453125,2532.0,-16.0,0.0,215710.0
49058.57275390625,2533.0,-28.0,-4.0,215706.0
49071.91357421875,2534.0,-38.0,-9.0,215701.0
49085.254638671875,2535.0,-45.0,-12.0,215698.0
49098.595458984375,2536.0,-48.0,-12.0,215698.0
49111.9365234375,2537.0,-48.0,-11.0,215699.0
49125.27734375,2538.0,-46.0,-8.0,215702.0
49138.6181640625,2539.0,-39.0,-3.0,215707.0
49151.959228515625,2540.0,-32.0,1.0,215711.0
49165.300048828125,2541.0,-22.0,5.0,215715.0
49178.64111328125,2542.0,-14.0,10.0,215720.0
49191.98193359375,2543.0,-7.0,14.0,215724.0
49205.322998046875,2544.0,0.0,16.0,215726.0
49218.663818359375,2545.0,7.0,16.0,215726.0
49232.0048828125,2546.0,13.0,14.0,215724.0
49245.345703125,2547.0,16.0,12.0,215722.0
49258.6865234375,2548.0,16.0,9.0,215719.0
49272.027587890625,2549.0,13.0,7.0,215717.0
49285.368408203125,2550.0,9.0,5.0,215715.0
49298.70947265625,2551.0,6.0,1.0,215711.0
49312.05029296875,2552.0,1.0,-3.0,215707.0
49325.391357421875,2553.0,-5.0,-5.0,215705.0
49338.732177734375,2554.0,-10.0,-4.0,215706.0
49352.0732421875,2555.0,-11.0,-3.0,215707.0
49365.4140625,2556.0,-12.0,-1.0,215709.0
49378.7548828125,2557.0,-11.0,0.0,215710.0
49392.095947265625,2558.0,-12.0,-1.0,215709.0
49405.436767578125,2559.0,-12.0,-2.0,215708.0
49418.77783203125,2560.0,-11.0,-2.0,215708.0
49432.11865234375,2561.0,-8.0,0.0,215710.0
49445.459716796875,2562.0,-3.0,1.0,215711.0
49458.800537109375,2563.0,3.0,3.0,215713.0
49472.1416015625,2564.0,8.0,6.0,215716.0
49485.482421875,2565.0,10.0,10.0,215720.0
49498.8232421875,2566.0,11.0,15.0,215725.0
49512.164306640625,2567.0,9.0,20.0,215730.0
49525.505126953125,2568.0,6.0,23.0,215733.0
49538.84619140625,2569.0,3.0,25.0,215735.0
49552.18701171875,2570.0,1.0,25.0,215735.0
49565.528076171875,2571.0,1.0,25.0,215735.0
49578.868896484375,2572.0,3.0,24.0,215734.0
49592.2099609375,2573.0,5.0,20.0,215730.0
49605.55078125,2574.0,9.0,18.0,215728.0
49618.8916015625,2575.0,12.0,18.0,215728.0
49632.232666015625,2576.0,16.0,20.0,215730.0
49645.573486328125,2577.0,19.0,22.0,215732.0
49658.91455078125,2578.0,21.0,22.0,215732.0
49672.25537109375,2579.0,21.0,22.0,215732.0
49685.596435546875,2580.0,19.0,23.0,215733.0
49698.937255859375,2581.0,13.0,23.0,215733.0
49712.2783203125,2582.0,5.0,18.0,215728.0
49725.619140625,2583.0,-5.0,12.0,215722.0
49738.9599609375,2584.0,-18.0,4.0,215714.0
49752.301025390625,2585.0,-30.0,-5.0,215705.0
49765.641845703125,2586.0,-38.0,-13.0,215697.0
49778.98291015625,2587.0,-46.0,-19.0,215691.0
49792.32373046875,2588.0,-49.0,-21.0,215689.0
49805.664794921875,2589.0,-50.0,-17.0,215693.0
49819.005615234375,2590.0,-46.0,-10.0,215700.0
49832.3466796875,2591.0,-40.0,-1.0,215709.0
49845.6875,2592.0,-32.0,7.0,215717.0
49859.0283203125,2593.0,-25.0,13.0,215723.0
49872.369384765625,2594.0,-17.0,17.0,215727.0
49885.710205078125,2595.0,-11.0,21.0,215731.0
49899.05126953125,2596.0,-6.0,23.0,215733.0
49912.39208984375,2597.0,-1.0,26.0,215736.0
49925.733154296875,2598.0,2.0,26.0,215736.0
49939.073974609375,2599.0,4.0,24.0,215734.0
49952.4150390625,2600.0,4.0,22.0,215732.0
49965.755859375,2601.0,2.0,19.0,215729.0
49979.0966796875,2602.0,0.0,16.0,215726.0
49992.437744140625,2603.0,-4.0,13.0,215723.0
