timestamp,sampleNum,BIOZI,BIOZQ,BIOZ
22525.6826171875,1.0,28458.0,8234.0,127179.0
22552.365478515625,2.0,119335.0,-25099.0,93846.0
22579.048095703125,3.0,261401.0,-87895.0,31050.0
22605.73095703125,4.0,332490.0,-118945.0,0.0
22632.41357421875,5.0,319344.0,-113113.0,5832.0
22659.09619140625,6.0,302852.0,-106280.0,12665.0
22685.779052734375,7.0,300896.0,-105806.0,13139.0
22712.461669921875,8.0,299568.0,-105523.0,13422.0
22739.14453125,9.0,295792.0,-104156.0,14789.0
22765.8271484375,10.0,291953.0,-102763.0,16182.0
22792.509765625,11.0,288580.0,-101579.0,17366.0
22819.192626953125,12.0,285264.0,-100423.0,18522.0
22845.875244140625,13.0,281914.0,-99248.0,19697.0
22872.55810546875,14.0,278602.0,-98079.0,20866.0
22899.24072265625,15.0,275346.0,-96926.0,22019.0
22925.92333984375,16.0,272129.0,-95789.0,23156.0
22952.606201171875,17.0,268942.0,-94668.0,24277.0
22979.288818359375,18.0,265787.0,-93557.0,25388.0
23005.9716796875,19.0,262670.0,-92456.0,26489.0
23032.654296875,20.0,259594.0,-91367.0,27578.0
23059.3369140625,21.0,256555.0,-90291.0,28654.0
23086.019775390625,22.0,253551.0,-89231.0,29714.0
23112.702392578125,23.0,250581.0,-88187.0,30758.0
23139.38525390625,24.0,247646.0,-87156.0,31789.0
23166.06787109375,25.0,244746.0,-86135.0,32810.0
23192.75048828125,26.0,241878.0,-85125.0,33820.0
23219.433349609375,27.0,239042.0,-84123.0,34822.0
23246.115966796875,28.0,236231.0,-83142.0,35803.0
23272.798828125,29.0,233444.0,-82183.0,36762.0
23299.4814453125,30.0,230693.0,-81230.0,37715.0
23326.1640625,31.0,227986.0,-80278.0,38667.0
23352.846923828125,32.0,225312.0,-79333.0,39612.0
23379.529541015625,33.0,222668.0,-78403.0,40542.0
23406.21240234375,34.0,220053.0,-77487.0,41458.0
23432.89501953125,35.0,217479.0,-76581.0,42364.0
23459.57763671875,36.0,214939.0,-75681.0,43264.0
23486.260498046875,37.0,212425.0,-74790.0,44155.0
23512.943115234375,38.0,209937.0,-73913.0,45032.0
23539.6259765625,39.0,207479.0,-73047.0,45898.0
23566.30859375,40.0,205049.0,-72191.0,46754.0
23592.9912109375,41.0,202649.0,-71346.0,47599.0
23619.674072265625,42.0,200278.0,-70510.0,48435.0
23646.356689453125,43.0,197932.0,-69679.0,49266.0
23673.039306640625,44.0,195613.0,-68858.0,50087.0
23699.72216796875,45.0,193322.0,-68046.0,50899.0
23726.40478515625,46.0,191059.0,-67250.0,51695.0
23753.087646484375,47.0,188822.0,-66462.0,52483.0
23779.770263671875,48.0,186612.0,-65677.0,53268.0
23806.452880859375,49.0,184433.0,-64898.0,54047.0
23833.1357421875,50.0,182275.0,-64137.0,54808.0
23859.818359375,51.0,180137.0,-63385.0,55560.0
23886.501220703125,52.0,178025.0,-62637.0,56308.0
23913.183837890625,53.0,175943.0,-61905.0,57040.0
23939.866455078125,54.0,173885.0,-61180.0,57765.0
23966.54931640625,55.0,171847.0,-60463.0,58482.0
23993.23193359375,56.0,169824.0,-59763.0,59182.0
24019.914794921875,57.0,167821.0,-59075.0,59870.0
24046.597412109375,58.0,165845.0,-58387.0,60558.0
24073.280029296875,59.0,163898.0,-57707.0,61238.0
24099.962890625,60.0,161975.0,-57038.0,61907.0
24126.6455078125,61.0,160071.0,-56369.0,62576.0
24153.328369140625,62.0,158192.0,-55705.0,63240.0
24180.010986328125,63.0,156339.0,-55048.0,63897.0
24206.693603515625,64.0,154512.0,-54404.0,64541.0
24233.37646484375,65.0,152707.0,-53768.0,65177.0
24260.05908203125,66.0,150923.0,-53137.0,65808.0
24286.741943359375,67.0,149155.0,-52511.0,66434.0
24313.424560546875,68.0,147403.0,-51894.0,67051.0
24340.107177734375,69.0,145676.0,-51288.0,67657.0
24366.7900390625,70.0,143975.0,-50684.0,68261.0
24393.47265625,71.0,142293.0,-50078.0,68867.0
24420.155517578125,72.0,140628.0,-49476.0,69469.0
24446.838134765625,73.0,138982.0,-48894.0,70051.0
24473.520751953125,74.0,137352.0,-48327.0,70618.0
24500.20361328125,75.0,135743.0,-47762.0,71183.0
24526.88623046875,76.0,134154.0,-47196.0,71749.0
24553.569091796875,77.0,132587.0,-46638.0,72307.0
24580.251708984375,78.0,131038.0,-46093.0,72852.0
24606.934326171875,79.0,129504.0,-45556.0,73389.0
24633.6171875,80.0,127986.0,-45020.0,73925.0
24660.2998046875,81.0,126486.0,-44486.0,74459.0
24686.982666015625,82.0,124997.0,-43970.0,74975.0
24713.665283203125,83.0,123519.0,-43472.0,75473.0
24740.347900390625,84.0,122061.0,-42973.0,75972.0
24767.03076171875,85.0,120627.0,-42470.0,76475.0
24793.71337890625,86.0,119215.0,-41966.0,76979.0
24820.396240234375,87.0,117817.0,-41469.0,77476.0
24847.078857421875,88.0,116431.0,-40984.0,77961.0
24873.761474609375,89.0,115064.0,-40511.0,78434.0
24900.4443359375,90.0,113719.0,-40037.0,78908.0
24927.126953125,91.0,112392.0,-39560.0,79385.0
24953.809814453125,92.0,111075.0,-39093.0,79852.0
24980.492431640625,93.0,109771.0,-38638.0,80307.0
25007.175048828125,94.0,108488.0,-38183.0,80762.0
25033.85791015625,95.0,107222.0,-37730.0,81215.0
25060.54052734375,96.0,105969.0,-37284.0,81661.0
25087.223388671875,97.0,104732.0,-36848.0,82097.0
25113.906005859375,98.0,103507.0,-36419.0,82526.0
25140.588623046875,99.0,102295.0,-35990.0,82955.0
25167.271484375,100.0,101098.0,-35565.0,83380.0
25193.9541015625,101.0,99913.0,-35153.0,83792.0
25220.636962890625,102.0,98742.0,-34748.0,84197.0
25247.319580078125,103.0,97589.0,-34340.0,84605.0
25274.002197265625,104.0,96452.0,-33933.0,85012.0
25300.68505859375,105.0,95327.0,-33535.0,85410.0
25327.36767578125,106.0,94213.0,-33146.0,85799.0
25354.050537109375,107.0,93106.0,-32759.0,86186.0
25380.733154296875,108.0,92003.0,-32376.0,86569.0
25407.415771484375,109.0,90911.0,-32004.0,86941.0
25434.0986328125,110.0,89834.0,-31635.0,87310.0
25460.78125,111.0,88777.0,-31261.0,87684.0
25487.464111328125,112.0,87735.0,-30890.0,88055.0
25514.146728515625,113.0,86696.0,-30535.0,88410.0
25540.829345703125,114.0,85669.0,-30190.0,88755.0
25567.51220703125,115.0,84665.0,-29840.0,89105.0
25594.19482421875,116.0,83680.0,-29485.0,89460.0
25620.877685546875,117.0,82704.0,-29136.0,89809.0
25647.560302734375,118.0,81740.0,-28789.0,90156.0
25674.242919921875,119.0,80782.0,-28446.0,90499.0
25700.92578125,120.0,79832.0,-28111.0,90834.0
25727.6083984375,121.0,78894.0,-27784.0,91161.0
25754.291259765625,122.0,77971.0,-27458.0,91487.0
25780.973876953125,123.0,77060.0,-27134.0,91811.0
25807.656494140625,124.0,76164.0,-26818.0,92127.0
25834.33935546875,125.0,75275.0,-26507.0,92438.0
25861.02197265625,126.0,74394.0,-26193.0,92752.0
25887.704833984375,127.0,73524.0,-25875.0,93070.0
25914.387451171875,128.0,72664.0,-25568.0,93377.0
25941.070068359375,129.0,71813.0,-25271.0,93674.0
25967.7529296875,130.0,70978.0,-24974.0,93971.0
25994.435546875,131.0,70150.0,-24674.0,94271.0
26021.1181640625,132.0,69327.0,-24376.0,94569.0
26047.801025390625,133.0,68509.0,-24089.0,94856.0
26074.483642578125,134.0,67697.0,-23816.0,95129.0
26101.16650390625,135.0,66890.0,-23546.0,95399.0
26127.84912109375,136.0,66098.0,-23273.0,95672.0
26154.53173828125,137.0,65323.0,-22995.0,95950.0
26181.214599609375,138.0,64552.0,-22725.0,96220.0
26207.897216796875,139.0,63787.0,-22466.0,96479.0
26234.580078125,140.0,63035.0,-22213.0,96732.0
26261.2626953125,141.0,62300.0,-21959.0,96986.0
26287.9453125,142.0,61578.0,-21705.0,97240.0
26314.628173828125,143.0,60863.0,-21449.0,97496.0
26341.310791015625,144.0,60153.0,-21192.0,97753.0
26367.99365234375,145.0,59446.0,-20939.0,98006.0
26394.67626953125,146.0,58750.0,-20693.0,98252.0
26421.35888671875,147.0,58064.0,-20446.0,98499.0
26448.041748046875,148.0,57384.0,-20200.0,98745.0
26474.724365234375,149.0,56715.0,-19955.0,98990.0
26501.4072265625,150.0,56055.0,-19719.0,99226.0
26528.08984375,151.0,55402.0,-19490.0,99455.0
26554.7724609375,152.0,54757.0,-19259.0,99686.0
26581.455322265625,153.0,54122.0,-19027.0,99918.0
26608.137939453125,154.0,53493.0,-18803.0,100142.0
26634.82080078125,155.0,52865.0,-18589.0,100356.0
26661.50341796875,156.0,52243.0,-18374.0,100571.0
26688.18603515625,157.0,51633.0,-18154.0,100791.0
26714.868896484375,158.0,51029.0,-17932.0,101013.0
26741.551513671875,159.0,50424.0,-17722.0,101223.0
26768.234375,160.0,49819.0,-17527.0,101418.0
26794.9169921875,161.0,49225.0,-17334.0,101611.0
26821.599609375,162.0,48648.0,-17136.0,101809.0
26848.282470703125,163.0,48074.0,-16941.0,102004.0
26874.965087890625,164.0,47503.0,-16750.0,102195.0
26901.64794921875,165.0,46942.0,-16559.0,102386.0
26928.33056640625,166.0,46389.0,-16364.0,102581.0
26955.01318359375,167.0,45848.0,-16167.0,102778.0
26981.696044921875,168.0,45320.0,-15973.0,102972.0
27008.378662109375,169.0,44794.0,-15785.0,103160.0
27035.0615234375,170.0,44269.0,-15600.0,103345.0
27061.744140625,171.0,43752.0,-15422.0,103523.0
27088.4267578125,172.0,43240.0,-15244.0,103701.0
27115.109619140625,173.0,42736.0,-15061.0,103884.0
27141.792236328125,174.0,42240.0,-14876.0,104069.0
27168.47509765625,175.0,41750.0,-14692.0,104253.0
27195.15771484375,176.0,41266.0,-14508.0,104437.0
27221.84033203125,177.0,40789.0,-14330.0,104615.0
27248.523193359375,178.0,40315.0,-14161.0,104784.0
27275.205810546875,179.0,39843.0,-13999.0,104946.0
27301.888671875,180.0,39377.0,-13837.0,105108.0
27328.5712890625,181.0,38917.0,-13677.0,105268.0
27355.25390625,182.0,38464.0,-13515.0,105430.0
27381.936767578125,183.0,38018.0,-13349.0,105596.0
27408.619384765625,184.0,37573.0,-13197.0,105748.0
27435.30224609375,185.0,37123.0,-13059.0,105886.0
27461.98486328125,186.0,36675.0,-12914.0,106031.0
27488.66748046875,187.0,36234.0,-12759.0,106186.0
27515.350341796875,188.0,35806.0,-12608.0,106337.0
27542.032958984375,189.0,35388.0,-12468.0,106477.0
27568.7158203125,190.0,34969.0,-12328.0,106617.0
27595.3984375,191.0,34550.0,-12188.0,106757.0
27622.0810546875,192.0,34140.0,-12053.0,106892.0
27648.763916015625,193.0,33743.0,-11915.0,107030.0
27675.446533203125,194.0,33354.0,-11767.0,107178.0
27702.12939453125,195.0,32967.0,-11622.0,107323.0
27728.81201171875,196.0,32576.0,-11490.0,107455.0
27755.49462890625,197.0,32186.0,-11364.0,107581.0
27782.177490234375,198.0,31806.0,-11232.0,107713.0
27808.860107421875,199.0,31436.0,-11091.0,107854.0
27835.54296875,200.0,31074.0,-10948.0,107997.0
27862.2255859375,201.0,30715.0,-10810.0,108135.0
27888.908203125,202.0,30360.0,-10678.0,108267.0
27915.591064453125,203.0,30009.0,-10554.0,108391.0
27942.273681640625,204.0,29658.0,-10434.0,108511.0
27968.95654296875,205.0,29311.0,-10316.0,108629.0
27995.63916015625,206.0,28971.0,-10196.0,108749.0
28022.32177734375,207.0,28632.0,-10076.0,108869.0
28049.004638671875,208.0,28299.0,-9960.0,108985.0
28075.687255859375,209.0,27971.0,-9846.0,109099.0
28102.3701171875,210.0,27643.0,-9728.0,109217.0
28129.052734375,211.0,27308.0,-9617.0,109328.0
28155.7353515625,212.0,26973.0,-9514.0,109431.0
28182.418212890625,213.0,26649.0,-9408.0,109537.0
28209.100830078125,214.0,26337.0,-9293.0,109652.0
28235.783447265625,215.0,26031.0,-9181.0,109764.0
28262.46630859375,216.0,25721.0,-9077.0,109868.0
28289.14892578125,217.0,25411.0,-8979.0,109966.0
28315.831787109375,218.0,25113.0,-8874.0,110071.0
28342.514404296875,219.0,24830.0,-8760.0,110185.0
28369.197021484375,220.0,24549.0,-8649.0,110296.0
28395.8798828125,221.0,24262.0,-8552.0,110393.0
28422.5625,222.0,23974.0,-8458.0,110487.0
28449.245361328125,223.0,23692.0,-8357.0,110588.0
28475.927978515625,224.0,23419.0,-8252.0,110693.0
28502.610595703125,225.0,23146.0,-8154.0,110791.0
28529.29345703125,226.0,22876.0,-8057.0,110888.0
28555.97607421875,227.0,22612.0,-7960.0,110985.0
28582.658935546875,228.0,22352.0,-7863.0,111082.0
28609.341552734375,229.0,22091.0,-7776.0,111169.0
28636.024169921875,230.0,21837.0,-7688.0,111257.0
28662.70703125,231.0,21586.0,-7592.0,111353.0
28689.3896484375,232.0,21333.0,-7497.0,111448.0
28716.072509765625,233.0,21087.0,-7407.0,111538.0
28742.755126953125,234.0,20844.0,-7316.0,111629.0
28769.437744140625,235.0,20601.0,-7224.0,111721.0
28796.12060546875,236.0,20357.0,-7138.0,111807.0
28822.80322265625,237.0,20109.0,-7061.0,111884.0
28849.486083984375,238.0,19858.0,-6987.0,111958.0
28876.168701171875,239.0,19617.0,-6916.0,112029.0
28902.851318359375,240.0,19385.0,-6840.0,112105.0
28929.5341796875,241.0,19150.0,-6761.0,112184.0
28956.216796875,242.0,18914.0,-6688.0,112257.0
28982.899658203125,243.0,18685.0,-6615.0,112330.0
29009.582275390625,244.0,18467.0,-6536.0,112409.0
29036.264892578125,245.0,18256.0,-6457.0,112488.0
29062.94775390625,246.0,18046.0,-6374.0,112571.0
29089.63037109375,247.0,17840.0,-6290.0,112655.0
29116.313232421875,248.0,17637.0,-6217.0,112728.0
29142.995849609375,249.0,17432.0,-6147.0,112798.0
29169.678466796875,250.0,17228.0,-6072.0,112873.0
29196.361328125,251.0,17027.0,-5995.0,112950.0
29223.0439453125,252.0,16827.0,-5922.0,113023.0
29249.726806640625,253.0,16631.0,-5851.0,113094.0
29276.409423828125,254.0,16441.0,-5780.0,113165.0
29303.092041015625,255.0,16257.0,-5712.0,113233.0
29329.77490234375,256.0,16074.0,-5643.0,113302.0
29356.45751953125,257.0,15889.0,-5570.0,113375.0
29383.140380859375,258.0,15704.0,-5502.0,113443.0
29409.822998046875,259.0,15521.0,-5441.0,113504.0
29436.505615234375,260.0,15341.0,-5378.0,113567.0
29463.1884765625,261.0,15166.0,-5308.0,113637.0
29489.87109375,262.0,14987.0,-5235.0,113710.0
29516.553955078125,263.0,14806.0,-5169.0,113776.0
29543.236572265625,264.0,14625.0,-5123.0,113822.0
29569.919189453125,265.0,14444.0,-5084.0,113861.0
29596.60205078125,266.0,14268.0,-5036.0,113909.0
29623.28466796875,267.0,14099.0,-4977.0,113968.0
29649.967529296875,268.0,13931.0,-4921.0,114024.0
29676.650146484375,269.0,13760.0,-4874.0,114071.0
29703.332763671875,270.0,13590.0,-4825.0,114120.0
29730.015625,271.0,13433.0,-4767.0,114178.0
29756.6982421875,272.0,13279.0,-4709.0,114236.0
29783.381103515625,273.0,13125.0,-4652.0,114293.0
29810.063720703125,274.0,12975.0,-4602.0,114343.0
29836.746337890625,275.0,12823.0,-4549.0,114396.0
29863.42919921875,276.0,12670.0,-4494.0,114451.0
29890.11181640625,277.0,12523.0,-4441.0,114504.0
29916.794677734375,278.0,12381.0,-4386.0,114559.0
29943.477294921875,279.0,12241.0,-4329.0,114616.0
29970.159912109375,280.0,12103.0,-4276.0,114669.0
29996.8427734375,281.0,11965.0,-4224.0,114721.0
30023.525390625,282.0,11828.0,-4164.0,114781.0
30050.208251953125,283.0,11693.0,-4101.0,114844.0
30076.890869140625,284.0,11557.0,-4048.0,114897.0
30103.573486328125,285.0,11422.0,-4010.0,114935.0
30130.25634765625,286.0,11292.0,-3977.0,114968.0
30156.93896484375,287.0,11163.0,-3932.0,115013.0
30183.621826171875,288.0,11034.0,-3878.0,115067.0
30210.304443359375,289.0,10907.0,-3823.0,115122.0
30236.987060546875,290.0,10777.0,-3773.0,115172.0
30263.669921875,291.0,10641.0,-3736.0,115209.0
30290.3525390625,292.0,10501.0,-3707.0,115238.0
30317.035400390625,293.0,10365.0,-3673.0,115272.0
30343.718017578125,294.0,10237.0,-3632.0,115313.0
30370.400634765625,295.0,10119.0,-3589.0,115356.0
30397.08349609375,296.0,9999.0,-3555.0,115390.0
30423.76611328125,297.0,9874.0,-3526.0,115419.0
30450.448974609375,298.0,9754.0,-3489.0,115456.0
30477.131591796875,299.0,9645.0,-3446.0,115499.0
30503.814208984375,300.0,9539.0,-3399.0,115546.0
30530.4970703125,301.0,9432.0,-3350.0,115595.0
30557.1796875,302.0,9323.0,-3301.0,115644.0
30583.8623046875,303.0,9215.0,-3259.0,115686.0
30610.545166015625,304.0,9110.0,-3220.0,115725.0
30637.227783203125,305.0,9006.0,-3184.0,115761.0
30663.91064453125,306.0,8901.0,-3147.0,115798.0
30690.59326171875,307.0,8801.0,-3107.0,115838.0
30717.27587890625,308.0,8703.0,-3063.0,115882.0
30743.958740234375,309.0,8603.0,-3021.0,115924.0
30770.641357421875,310.0,8507.0,-2980.0,115965.0
30797.32421875,311.0,8415.0,-2942.0,116003.0
30824.0068359375,312.0,8324.0,-2908.0,116037.0
30850.689453125,313.0,8231.0,-2874.0,116071.0
30877.372314453125,314.0,8132.0,-2839.0,116106.0
30904.054931640625,315.0,8029.0,-2805.0,116140.0
30930.73779296875,316.0,7935.0,-2773.0,116172.0
30957.42041015625,317.0,7844.0,-2741.0,116204.0
30984.10302734375,318.0,7740.0,-2717.0,116228.0
31010.785888671875,319.0,7630.0,-2702.0,116243.0
31037.468505859375,320.0,7528.0,-2687.0,116258.0
31064.1513671875,321.0,7438.0,-2659.0,116286.0
31090.833984375,322.0,7355.0,-2621.0,116324.0
31117.5166015625,323.0,7268.0,-2585.0,116360.0
31144.199462890625,324.0,7180.0,-2558.0,116387.0
31170.882080078125,325.0,7096.0,-2528.0,116417.0
31197.56494140625,326.0,7018.0,-2492.0,116453.0
31224.24755859375,327.0,6942.0,-2455.0,116490.0
31250.93017578125,328.0,6863.0,-2420.0,116525.0
31277.613037109375,329.0,6780.0,-2392.0,116553.0
31304.295654296875,330.0,6696.0,-2369.0,116576.0
31330.978515625,331.0,6618.0,-2347.0,116598.0
31357.6611328125,332.0,6547.0,-2319.0,116626.0
31384.34375,333.0,6476.0,-2293.0,116652.0
31411.026611328125,334.0,6400.0,-2268.0,116677.0
31437.709228515625,335.0,6323.0,-2239.0,116706.0
31464.39208984375,336.0,6252.0,-2202.0,116743.0
31491.07470703125,337.0,6182.0,-2166.0,116779.0
31517.75732421875,338.0,6111.0,-2135.0,116810.0
31544.440185546875,339.0,6041.0,-2108.0,116837.0
31571.122802734375,340.0,5972.0,-2080.0,116865.0
31597.8056640625,341.0,5907.0,-2052.0,116893.0
31624.48828125,342.0,5843.0,-2025.0,116920.0
31651.1708984375,343.0,5780.0,-1998.0,116947.0
31677.853759765625,344.0,5716.0,-1977.0,116968.0
31704.536376953125,345.0,5640.0,-1966.0,116979.0
31731.21923828125,346.0,5554.0,-1960.0,116985.0
31757.90185546875,347.0,5472.0,-1951.0,116994.0
31784.58447265625,348.0,5401.0,-1936.0,117009.0
31811.267333984375,349.0,5337.0,-1913.0,117032.0
31837.949951171875,350.0,5272.0,-1891.0,117054.0
31864.6328125,351.0,5202.0,-1876.0,117069.0
31891.3154296875,352.0,5135.0,-1861.0,117084.0
31917.998046875,353.0,5079.0,-1835.0,117110.0
31944.680908203125,354.0,5033.0,-1801.0,117144.0
31971.363525390625,355.0,4984.0,-1774.0,117171.0
31998.04638671875,356.0,4929.0,-1756.0,117189.0
32024.72900390625,357.0,4872.0,-1737.0,117208.0
32051.41162109375,358.0,4817.0,-1715.0,117230.0
32078.094482421875,359.0,4762.0,-1695.0,117250.0
32104.777099609375,360.0,4709.0,-1674.0,117271.0
32131.4599609375,361.0,4659.0,-1648.0,117297.0
32158.142578125,362.0,4613.0,-1627.0,117318.0
32184.8251953125,363.0,4565.0,-1609.0,117336.0
32211.508056640625,364.0,4512.0,-1589.0,117356.0
32238.190673828125,365.0,4457.0,-1570.0,117375.0
32264.87353515625,366.0,4405.0,-1554.0,117391.0
32291.55615234375,367.0,4356.0,-1535.0,117410.0
32318.23876953125,368.0,4305.0,-1515.0,117430.0
32344.921630859375,369.0,4251.0,-1496.0,117449.0
32371.604248046875,370.0,4201.0,-1478.0,117467.0
32398.287109375,371.0,4157.0,-1468.0,117477.0
32424.9697265625,372.0,4105.0,-1457.0,117488.0
32451.65234375,373.0,4039.0,-1446.0,117499.0
32478.335205078125,374.0,3973.0,-1443.0,117502.0
32505.017822265625,375.0,3920.0,-1440.0,117505.0
32531.70068359375,376.0,3873.0,-1426.0,117519.0
32558.38330078125,377.0,3826.0,-1402.0,117543.0
32585.06591796875,378.0,3777.0,-1383.0,117562.0
32611.748779296875,379.0,3728.0,-1370.0,117575.0
32638.431396484375,380.0,3682.0,-1355.0,117590.0
32665.1142578125,381.0,3644.0,-1331.0,117614.0
32691.796875,382.0,3609.0,-1313.0,117632.0
32718.4794921875,383.0,3568.0,-1299.0,117646.0
32745.162353515625,384.0,3522.0,-1283.0,117662.0
32771.844970703125,385.0,3482.0,-1268.0,117677.0
32798.527587890625,386.0,3448.0,-1258.0,117687.0
32825.21044921875,387.0,3415.0,-1243.0,117702.0
32851.89306640625,388.0,3380.0,-1220.0,117725.0
32878.575927734375,389.0,3346.0,-1194.0,117751.0
32905.258544921875,390.0,3310.0,-1172.0,117773.0
32931.941162109375,391.0,3271.0,-1159.0,117786.0
32958.6240234375,392.0,3234.0,-1148.0,117797.0
32985.306640625,393.0,3196.0,-1133.0,117812.0
33011.989501953125,394.0,3159.0,-1121.0,117824.0
33038.672119140625,395.0,3127.0,-1112.0,117833.0
33065.354736328125,396.0,3094.0,-1095.0,117850.0
33092.03759765625,397.0,3055.0,-1076.0,117869.0
33118.72021484375,398.0,3015.0,-1061.0,117884.0
33145.403076171875,399.0,2972.0,-1055.0,117890.0
33172.085693359375,400.0,2927.0,-1049.0,117896.0
33198.768310546875,401.0,2884.0,-1045.0,117900.0
33225.451171875,402.0,2847.0,-1038.0,117907.0
33252.1337890625,403.0,2813.0,-1024.0,117921.0
33278.816650390625,404.0,2776.0,-1012.0,117933.0
33305.499267578125,405.0,2734.0,-1005.0,117940.0
33332.181884765625,406.0,2695.0,-995.0,117950.0
33358.86474609375,407.0,2665.0,-982.0,117963.0
33385.54736328125,408.0,2646.0,-963.0,117982.0
33412.230224609375,409.0,2626.0,-942.0,118003.0
33438.912841796875,410.0,2596.0,-929.0,118016.0
33465.595458984375,411.0,2563.0,-919.0,118026.0
33492.2783203125,412.0,2540.0,-909.0,118036.0
33518.9609375,413.0,2519.0,-901.0,118044.0
33545.643798828125,414.0,2493.0,-896.0,118049.0
33572.326416015625,415.0,2466.0,-885.0,118060.0
33599.009033203125,416.0,2439.0,-869.0,118076.0
33625.69189453125,417.0,2410.0,-858.0,118087.0
33652.37451171875,418.0,2384.0,-851.0,118094.0
33679.057373046875,419.0,2360.0,-839.0,118106.0
33705.739990234375,420.0,2335.0,-821.0,118124.0
33732.422607421875,421.0,2310.0,-804.0,118141.0
33759.10546875,422.0,2286.0,-797.0,118148.0
33785.7880859375,423.0,2264.0,-793.0,118152.0
33812.470947265625,424.0,2239.0,-782.0,118163.0
33839.153564453125,425.0,2208.0,-770.0,118175.0
33865.836181640625,426.0,2165.0,-767.0,118178.0
33892.51904296875,427.0,2126.0,-773.0,118172.0
33919.20166015625,428.0,2097.0,-773.0,118172.0
33945.884521484375,429.0,2068.0,-768.0,118177.0
33972.567138671875,430.0,2037.0,-762.0,118183.0
33999.249755859375,431.0,2007.0,-759.0,118186.0
34025.9326171875,432.0,1982.0,-753.0,118192.0
34052.615234375,433.0,1960.0,-739.0,118206.0
34079.298095703125,434.0,1940.0,-725.0,118220.0
34105.980712890625,435.0,1922.0,-716.0,118229.0
34132.663330078125,436.0,1901.0,-704.0,118241.0
34159.34619140625,437.0,1878.0,-696.0,118249.0
34186.02880859375,438.0,1855.0,-695.0,118250.0
34212.711669921875,439.0,1831.0,-693.0,118252.0
34239.394287109375,440.0,1810.0,-682.0,118263.0
34266.076904296875,441.0,1794.0,-664.0,118281.0
34292.759765625,442.0,1779.0,-646.0,118299.0
34319.4423828125,443.0,1760.0,-635.0,118310.0
34346.125244140625,444.0,1740.0,-629.0,118316.0
34372.807861328125,445.0,1726.0,-619.0,118326.0
34399.490478515625,446.0,1711.0,-608.0,118337.0
34426.17333984375,447.0,1694.0,-600.0,118345.0
34452.85595703125,448.0,1675.0,-591.0,118354.0
34479.538818359375,449.0,1657.0,-576.0,118369.0
34506.221435546875,450.0,1637.0,-566.0,118379.0
34532.904052734375,451.0,1614.0,-566.0,118379.0
34559.5869140625,452.0,1589.0,-570.0,118375.0
34586.26953125,453.0,1561.0,-577.0,118368.0
34612.952392578125,454.0,1529.0,-577.0,118368.0
34639.635009765625,455.0,1505.0,-566.0,118379.0
34666.317626953125,456.0,1487.0,-555.0,118390.0
34693.00048828125,457.0,1466.0,-553.0,118392.0
34719.68310546875,458.0,1443.0,-555.0,118390.0
34746.365966796875,459.0,1424.0,-552.0,118393.0
34773.048583984375,460.0,1411.0,-541.0,118404.0
34799.731201171875,461.0,1402.0,-530.0,118415.0
34826.4140625,462.0,1391.0,-521.0,118424.0
34853.0966796875,463.0,1373.0,-509.0,118436.0
34879.779541015625,464.0,1355.0,-493.0,118452.0
34906.462158203125,465.0,1340.0,-481.0,118464.0
34933.144775390625,466.0,1332.0,-479.0,118466.0
34959.82763671875,467.0,1322.0,-479.0,118466.0
34986.51025390625,468.0,1310.0,-470.0,118475.0
35013.193115234375,469.0,1296.0,-458.0,118487.0
35039.875732421875,470.0,1287.0,-450.0,118495.0
35066.558349609375,471.0,1277.0,-445.0,118500.0
35093.2412109375,472.0,1260.0,-439.0,118506.0
35119.923828125,473.0,1243.0,-431.0,118514.0
35146.6064453125,474.0,1232.0,-422.0,118523.0
35173.289306640625,475.0,1225.0,-412.0,118533.0
35199.971923828125,476.0,1218.0,-408.0,118537.0
35226.65478515625,477.0,1205.0,-405.0,118540.0
35253.33740234375,478.0,1188.0,-404.0,118541.0
35280.02001953125,479.0,1162.0,-410.0,118535.0
35306.702880859375,480.0,1134.0,-416.0,118529.0
35333.385498046875,481.0,1112.0,-416.0,118529.0
35360.068359375,482.0,1096.0,-405.0,118540.0
35386.7509765625,483.0,1083.0,-398.0,118547.0
35413.43359375,484.0,1068.0,-405.0,118540.0
35440.116455078125,485.0,1050.0,-417.0,118528.0
35466.799072265625,486.0,1035.0,-419.0,118526.0
35493.48193359375,487.0,1028.0,-411.0,118534.0
35520.16455078125,488.0,1021.0,-402.0,118543.0
35546.84716796875,489.0,1010.0,-394.0,118551.0
35573.530029296875,490.0,996.0,-387.0,118558.0
35600.212646484375,491.0,983.0,-376.0,118569.0
35626.8955078125,492.0,972.0,-369.0,118576.0
35653.578125,493.0,967.0,-368.0,118577.0
35680.2607421875,494.0,965.0,-365.0,118580.0
35706.943603515625,495.0,961.0,-357.0,118588.0
35733.626220703125,496.0,953.0,-351.0,118594.0
35760.30908203125,497.0,941.0,-342.0,118603.0
35786.99169921875,498.0,929.0,-337.0,118608.0
35813.67431640625,499.0,919.0,-336.0,118609.0
35840.357177734375,500.0,910.0,-334.0,118611.0
35867.039794921875,501.0,900.0,-325.0,118620.0
35893.72265625,502.0,890.0,-310.0,118635.0
35920.4052734375,503.0,880.0,-305.0,118640.0
35947.087890625,504.0,865.0,-312.0,118633.0
35973.770751953125,505.0,845.0,-319.0,118626.0
36000.453369140625,506.0,822.0,-325.0,118620.0
36027.13623046875,507.0,803.0,-328.0,118617.0
36053.81884765625,508.0,791.0,-320.0,118625.0
36080.50146484375,509.0,783.0,-315.0,118630.0
36107.184326171875,510.0,771.0,-317.0,118628.0
36133.866943359375,511.0,757.0,-315.0,118630.0
36160.5498046875,512.0,750.0,-304.0,118641.0
36187.232421875,513.0,750.0,-292.0,118653.0
36213.9150390625,514.0,748.0,-287.0,118658.0
36240.597900390625,515.0,739.0,-284.0,118661.0
36267.280517578125,516.0,730.0,-281.0,118664.0
36293.96337890625,517.0,727.0,-273.0,118672.0
36320.64599609375,518.0,726.0,-265.0,118680.0
36347.32861328125,519.0,721.0,-261.0,118684.0
36374.011474609375,520.0,718.0,-259.0,118686.0
36400.694091796875,521.0,714.0,-254.0,118691.0
36427.376953125,522.0,707.0,-249.0,118696.0
36454.0595703125,523.0,696.0,-241.0,118704.0
36480.7421875,524.0,690.0,-231.0,118714.0
36507.425048828125,525.0,689.0,-227.0,118718.0
36534.107666015625,526.0,684.0,-225.0,118720.0
36560.79052734375,527.0,675.0,-223.0,118722.0
36587.47314453125,528.0,667.0,-226.0,118719.0
36614.15576171875,529.0,661.0,-229.0,118716.0
36640.838623046875,530.0,649.0,-233.0,118712.0
36667.521240234375,531.0,627.0,-239.0,118706.0
36694.2041015625,532.0,603.0,-244.0,118701.0
36720.88671875,533.0,587.0,-246.0,118699.0
36747.5693359375,534.0,577.0,-243.0,118702.0
36774.252197265625,535.0,562.0,-244.0,118701.0
36800.934814453125,536.0,546.0,-248.0,118697.0
36827.61767578125,537.0,535.0,-251.0,118694.0
36854.30029296875,538.0,534.0,-245.0,118700.0
36880.98291015625,539.0,539.0,-237.0,118708.0
36907.665771484375,540.0,539.0,-229.0,118716.0
36934.348388671875,541.0,534.0,-218.0,118727.0
36961.03125,542.0,530.0,-213.0,118732.0
36987.7138671875,543.0,527.0,-214.0,118731.0
37014.396484375,544.0,521.0,-214.0,118731.0
37041.079345703125,545.0,515.0,-207.0,118738.0
37067.761962890625,546.0,514.0,-201.0,118744.0
37094.44482421875,547.0,513.0,-195.0,118750.0
37121.12744140625,548.0,512.0,-188.0,118757.0
37147.81005859375,549.0,509.0,-179.0,118766.0
37174.492919921875,550.0,505.0,-173.0,118772.0
37201.175537109375,551.0,501.0,-172.0,118773.0
37227.8583984375,552.0,496.0,-170.0,118775.0
37254.541015625,553.0,495.0,-165.0,118780.0
37281.2236328125,554.0,496.0,-156.0,118789.0
37307.906494140625,555.0,495.0,-151.0,118794.0
37334.589111328125,556.0,486.0,-156.0,118789.0
37361.271728515625,557.0,470.0,-168.0,118777.0
37387.95458984375,558.0,452.0,-179.0,118766.0
37414.63720703125,559.0,441.0,-186.0,118759.0
37441.320068359375,560.0,436.0,-186.0,118759.0
37468.002685546875,561.0,428.0,-181.0,118764.0
37494.685302734375,562.0,415.0,-176.0,118769.0
37521.3681640625,563.0,401.0,-175.0,118770.0
37548.05078125,564.0,394.0,-176.0,118769.0
37574.733642578125,565.0,397.0,-168.0,118777.0
37601.416259765625,566.0,398.0,-157.0,118788.0
37628.098876953125,567.0,392.0,-155.0,118790.0
37654.78173828125,568.0,386.0,-160.0,118785.0
37681.46435546875,569.0,385.0,-164.0,118781.0
37708.147216796875,570.0,387.0,-163.0,118782.0
37734.829833984375,571.0,388.0,-158.0,118787.0
37761.512451171875,572.0,391.0,-154.0,118791.0
37788.1953125,573.0,392.0,-150.0,118795.0
37814.8779296875,574.0,393.0,-140.0,118805.0
37841.560791015625,575.0,391.0,-133.0,118812.0
37868.243408203125,576.0,385.0,-135.0,118810.0
37894.926025390625,577.0,379.0,-134.0,118811.0
37921.60888671875,578.0,377.0,-130.0,118815.0
37948.29150390625,579.0,378.0,-130.0,118815.0
37974.974365234375,580.0,380.0,-130.0,118815.0
38001.656982421875,581.0,384.0,-131.0,118814.0
38028.339599609375,582.0,380.0,-129.0,118816.0
38055.0224609375,583.0,362.0,-133.0,118812.0
38081.705078125,584.0,337.0,-135.0,118810.0
38108.387939453125,585.0,321.0,-132.0,118813.0
38135.070556640625,586.0,316.0,-130.0,118815.0
38161.753173828125,587.0,313.0,-140.0,118805.0
38188.43603515625,588.0,303.0,-154.0,118791.0
38215.11865234375,589.0,291.0,-158.0,118787.0
38241.801513671875,590.0,285.0,-147.0,118798.0
38268.484130859375,591.0,285.0,-138.0,118807.0
38295.166748046875,592.0,289.0,-138.0,118807.0
38321.849609375,593.0,296.0,-139.0,118806.0
38348.5322265625,594.0,297.0,-141.0,118804.0
38375.215087890625,595.0,295.0,-137.0,118808.0
38401.897705078125,596.0,293.0,-127.0,118818.0
38428.580322265625,597.0,292.0,-123.0,118822.0
38455.26318359375,598.0,290.0,-125.0,118820.0
38481.94580078125,599.0,290.0,-125.0,118820.0
38508.628662109375,600.0,294.0,-115.0,118830.0
38535.311279296875,601.0,294.0,-104.0,118841.0
38561.993896484375,602.0,292.0,-97.0,118848.0
38588.6767578125,603.0,288.0,-94.0,118851.0
38615.359375,604.0,285.0,-92.0,118853.0
38642.042236328125,605.0,286.0,-91.0,118854.0
38668.724853515625,606.0,289.0,-86.0,118859.0
38695.407470703125,607.0,288.0,-78.0,118867.0
38722.09033203125,608.0,287.0,-78.0,118867.0
38748.77294921875,609.0,281.0,-88.0,118857.0
38775.455810546875,610.0,268.0,-99.0,118846.0
38802.138427734375,611.0,252.0,-107.0,118838.0
38828.821044921875,612.0,238.0,-114.0,118831.0
38855.50390625,613.0,233.0,-112.0,118833.0
38882.1865234375,614.0,230.0,-107.0,118838.0
38908.869384765625,615.0,220.0,-106.0,118839.0
38935.552001953125,616.0,211.0,-107.0,118838.0
38962.234619140625,617.0,209.0,-109.0,118836.0
38988.91748046875,618.0,209.0,-110.0,118835.0
39015.60009765625,619.0,213.0,-107.0,118838.0
39042.282958984375,620.0,215.0,-97.0,118848.0
39068.965576171875,621.0,215.0,-91.0,118854.0
39095.648193359375,622.0,214.0,-94.0,118851.0
39122.3310546875,623.0,218.0,-92.0,118853.0
39149.013671875,624.0,218.0,-82.0,118863.0
39175.696533203125,625.0,217.0,-79.0,118866.0
39202.379150390625,626.0,216.0,-86.0,118859.0
39229.061767578125,627.0,216.0,-84.0,118861.0
39255.74462890625,628.0,211.0,-72.0,118873.0
39282.42724609375,629.0,210.0,-65.0,118880.0
39309.110107421875,630.0,215.0,-63.0,118882.0
39335.792724609375,631.0,218.0,-59.0,118886.0
39362.475341796875,632.0,216.0,-54.0,118891.0
39389.158203125,633.0,219.0,-54.0,118891.0
39415.8408203125,634.0,224.0,-59.0,118886.0
39442.523681640625,635.0,222.0,-61.0,118884.0
39469.206298828125,636.0,209.0,-61.0,118884.0
39495.888916015625,637.0,195.0,-68.0,118877.0
39522.57177734375,638.0,184.0,-81.0,118864.0
39549.25439453125,639.0,176.0,-90.0,118855.0
39575.937255859375,640.0,168.0,-87.0,118858.0
39602.619873046875,641.0,160.0,-79.0,118866.0
39629.302490234375,642.0,148.0,-79.0,118866.0
39655.9853515625,643.0,138.0,-83.0,118862.0
39682.66796875,644.0,139.0,-83.0,118862.0
39709.3505859375,645.0,144.0,-79.0,118866.0
39736.033447265625,646.0,151.0,-78.0,118867.0
39762.716064453125,647.0,153.0,-74.0,118871.0
39789.39892578125,648.0,152.0,-68.0,118877.0
39816.08154296875,649.0,150.0,-65.0,118880.0
39842.76416015625,650.0,147.0,-64.0,118881.0
39869.447021484375,651.0,145.0,-64.0,118881.0
39896.129638671875,652.0,145.0,-62.0,118883.0
39922.8125,653.0,149.0,-62.0,118883.0
39949.4951171875,654.0,152.0,-62.0,118883.0
39976.177734375,655.0,147.0,-54.0,118891.0
40002.860595703125,656.0,146.0,-51.0,118894.0
40029.543212890625,657.0,148.0,-57.0,118888.0
40056.22607421875,658.0,153.0,-62.0,118883.0
40082.90869140625,659.0,153.0,-60.0,118885.0
40109.59130859375,660.0,150.0,-54.0,118891.0
40136.274169921875,661.0,150.0,-48.0,118897.0
40162.956787109375,662.0,152.0,-49.0,118896.0
40189.6396484375,663.0,151.0,-57.0,118888.0
40216.322265625,664.0,141.0,-68.0,118877.0
40243.0048828125,665.0,124.0,-75.0,118870.0
40269.687744140625,666.0,113.0,-78.0,118867.0
40296.370361328125,667.0,110.0,-81.0,118864.0
40323.05322265625,668.0,107.0,-86.0,118859.0
40349.73583984375,669.0,100.0,-89.0,118856.0
40376.41845703125,670.0,93.0,-90.0,118855.0
40403.101318359375,671.0,90.0,-87.0,118858.0
40429.783935546875,672.0,96.0,-75.0,118870.0
40456.466796875,673.0,104.0,-63.0,118882.0
40483.1494140625,674.0,103.0,-61.0,118884.0
40509.83203125,675.0,100.0,-64.0,118881.0
40536.514892578125,676.0,102.0,-68.0,118877.0
40563.197509765625,677.0,105.0,-70.0,118875.0
40589.88037109375,678.0,105.0,-66.0,118879.0
40616.56298828125,679.0,105.0,-62.0,118883.0
40643.24560546875,680.0,110.0,-65.0,118880.0
40669.928466796875,681.0,116.0,-67.0,118878.0
40696.611083984375,682.0,115.0,-67.0,118878.0
40723.2939453125,683.0,109.0,-65.0,118880.0
40749.9765625,684.0,105.0,-64.0,118881.0
40776.6591796875,685.0,105.0,-58.0,118887.0
40803.342041015625,686.0,108.0,-51.0,118894.0
40830.024658203125,687.0,109.0,-48.0,118897.0
40856.70751953125,688.0,112.0,-46.0,118899.0
40883.39013671875,689.0,114.0,-45.0,118900.0
40910.07275390625,690.0,112.0,-44.0,118901.0
40936.755615234375,691.0,106.0,-45.0,118900.0
40963.438232421875,692.0,94.0,-52.0,118893.0
40990.12109375,693.0,82.0,-59.0,118886.0
41016.8037109375,694.0,75.0,-59.0,118886.0
41043.486328125,695.0,70.0,-61.0,118884.0
41070.169189453125,696.0,62.0,-72.0,118873.0
41096.851806640625,697.0,57.0,-78.0,118867.0
41123.53466796875,698.0,57.0,-79.0,118866.0
41150.21728515625,699.0,59.0,-76.0,118869.0
41176.89990234375,700.0,60.0,-65.0,118880.0
41203.582763671875,701.0,62.0,-54.0,118891.0
41230.265380859375,702.0,64.0,-54.0,118891.0
41256.9482421875,703.0,65.0,-55.0,118890.0
41283.630859375,704.0,67.0,-50.0,118895.0
41310.3134765625,705.0,73.0,-39.0,118906.0
41336.996337890625,706.0,81.0,-34.0,118911.0
41363.678955078125,707.0,87.0,-41.0,118904.0
41390.36181640625,708.0,92.0,-46.0,118899.0
41417.04443359375,709.0,98.0,-36.0,118909.0
41443.72705078125,710.0,101.0,-25.0,118920.0
41470.409912109375,711.0,99.0,-24.0,118921.0
41497.092529296875,712.0,102.0,-22.0,118923.0
41523.775390625,713.0,107.0,-20.0,118925.0
41550.4580078125,714.0,111.0,-22.0,118923.0
41577.140625,715.0,111.0,-22.0,118923.0
41603.823486328125,716.0,109.0,-16.0,118929.0
41630.506103515625,717.0,108.0,-14.0,118931.0
41657.18896484375,718.0,100.0,-19.0,118926.0
41683.87158203125,719.0,82.0,-28.0,118917.0
41710.55419921875,720.0,67.0,-36.0,118909.0
41737.237060546875,721.0,63.0,-41.0,118904.0
41763.919677734375,722.0,62.0,-44.0,118901.0
41790.6025390625,723.0,55.0,-56.0,118889.0
41817.28515625,724.0,46.0,-66.0,118879.0
41843.9677734375,725.0,42.0,-64.0,118881.0
41870.650634765625,726.0,49.0,-59.0,118886.0
41897.333251953125,727.0,54.0,-53.0,118892.0
41924.015869140625,728.0,54.0,-50.0,118895.0
41950.69873046875,729.0,53.0,-54.0,118891.0
41977.38134765625,730.0,54.0,-51.0,118894.0
42004.064208984375,731.0,53.0,-44.0,118901.0
42030.746826171875,732.0,53.0,-40.0,118905.0
42057.429443359375,733.0,56.0,-40.0,118905.0
42084.1123046875,734.0,60.0,-38.0,118907.0
42110.794921875,735.0,62.0,-38.0,118907.0
42137.477783203125,736.0,57.0,-38.0,118907.0
42164.160400390625,737.0,53.0,-38.0,118907.0
42190.843017578125,738.0,53.0,-35.0,118910.0
42217.52587890625,739.0,59.0,-35.0,118910.0
42244.20849609375,740.0,65.0,-38.0,118907.0
42270.891357421875,741.0,67.0,-41.0,118904.0
42297.573974609375,742.0,66.0,-36.0,118909.0
42324.256591796875,743.0,63.0,-25.0,118920.0
42350.939453125,744.0,61.0,-19.0,118926.0
42377.6220703125,745.0,53.0,-20.0,118925.0
42404.304931640625,746.0,38.0,-28.0,118917.0
42430.987548828125,747.0,23.0,-42.0,118903.0
42457.670166015625,748.0,16.0,-52.0,118893.0
42484.35302734375,749.0,16.0,-55.0,118890.0
42511.03564453125,750.0,11.0,-56.0,118889.0
42537.718505859375,751.0,1.0,-57.0,118888.0
42564.401123046875,752.0,-5.0,-57.0,118888.0
42591.083740234375,753.0,1.0,-57.0,118888.0
42617.7666015625,754.0,11.0,-53.0,118892.0
42644.44921875,755.0,17.0,-48.0,118897.0
42671.132080078125,756.0,18.0,-45.0,118900.0
42697.814697265625,757.0,17.0,-39.0,118906.0
42724.497314453125,758.0,15.0,-37.0,118908.0
42751.18017578125,759.0,15.0,-42.0,118903.0
42777.86279296875,760.0,22.0,-41.0,118904.0
42804.545654296875,761.0,29.0,-36.0,118909.0
42831.228271484375,762.0,32.0,-31.0,118914.0
42857.910888671875,763.0,32.0,-25.0,118920.0
42884.59375,764.0,33.0,-19.0,118926.0
42911.2763671875,765.0,35.0,-17.0,118928.0
42937.959228515625,766.0,36.0,-15.0,118930.0
42964.641845703125,767.0,40.0,-11.0,118934.0
42991.324462890625,768.0,45.0,-4.0,118941.0
43018.00732421875,769.0,52.0,2.0,118947.0
43044.68994140625,770.0,56.0,4.0,118949.0
43071.372802734375,771.0,58.0,3.0,118948.0
43098.055419921875,772.0,55.0,-2.0,118943.0
43124.738037109375,773.0,41.0,-8.0,118937.0
43151.4208984375,774.0,26.0,-14.0,118931.0
43178.103515625,775.0,15.0,-14.0,118931.0
43204.786376953125,776.0,10.0,-13.0,118932.0
43231.468994140625,777.0,9.0,-15.0,118930.0
43258.151611328125,778.0,5.0,-17.0,118928.0
43284.83447265625,779.0,1.0,-22.0,118923.0
43311.51708984375,780.0,0.0,-25.0,118920.0
43338.199951171875,781.0,2.0,-22.0,118923.0
43364.882568359375,782.0,7.0,-17.0,118928.0
43391.565185546875,783.0,11.0,-20.0,118925.0
43418.248046875,784.0,10.0,-27.0,118918.0
43444.9306640625,785.0,11.0,-31.0,118914.0
43471.613525390625,786.0,17.0,-32.0,118913.0
43498.296142578125,787.0,22.0,-29.0,118916.0
43524.978759765625,788.0,21.0,-18.0,118927.0
43551.66162109375,789.0,20.0,-9.0,118936.0
43578.34423828125,790.0,24.0,-7.0,118938.0
43605.027099609375,791.0,26.0,-10.0,118935.0
43631.709716796875,792.0,27.0,-17.0,118928.0
43658.392333984375,793.0,29.0,-19.0,118926.0
43685.0751953125,794.0,32.0,-14.0,118931.0
43711.7578125,795.0,37.0,-14.0,118931.0
43738.440673828125,796.0,38.0,-18.0,118927.0
43765.123291015625,797.0,37.0,-16.0,118929.0
43791.805908203125,798.0,38.0,-11.0,118934.0
43818.48876953125,799.0,31.0,-14.0,118931.0
43845.17138671875,800.0,17.0,-21.0,118924.0
43871.854248046875,801.0,3.0,-29.0,118916.0
43898.536865234375,802.0,-4.0,-34.0,118911.0
43925.219482421875,803.0,-1.0,-34.0,118911.0
43951.90234375,804.0,-3.0,-33.0,118912.0
43978.5849609375,805.0,-13.0,-35.0,118910.0
44005.267822265625,806.0,-19.0,-42.0,118903.0
44031.950439453125,807.0,-16.0,-47.0,118898.0
44058.633056640625,808.0,-10.0,-44.0,118901.0
44085.31591796875,809.0,-4.0,-39.0,118906.0
44111.99853515625,810.0,0.0,-35.0,118910.0
44138.681396484375,811.0,1.0,-35.0,118910.0
44165.364013671875,812.0,3.0,-36.0,118909.0
44192.046630859375,813.0,10.0,-35.0,118910.0
44218.7294921875,814.0,18.0,-28.0,118917.0
44245.412109375,815.0,22.0,-21.0,118924.0
44272.0947265625,816.0,24.0,-25.0,118920.0
44298.777587890625,817.0,28.0,-34.0,118911.0
44325.460205078125,818.0,33.0,-34.0,118911.0
44352.14306640625,819.0,34.0,-30.0,118915.0
44378.82568359375,820.0,34.0,-27.0,118918.0
44405.50830078125,821.0,37.0,-22.0,118923.0
44432.191162109375,822.0,39.0,-17.0,118928.0
44458.873779296875,823.0,44.0,-14.0,118931.0
44485.556640625,824.0,57.0,-6.0,118939.0
44512.2392578125,825.0,64.0,6.0,118951.0
44538.921875,826.0,51.0,8.0,118953.0
44565.604736328125,827.0,31.0,-2.0,118943.0
44592.287353515625,828.0,17.0,-15.0,118930.0
44618.97021484375,829.0,13.0,-27.0,118918.0
44645.65283203125,830.0,10.0,-38.0,118907.0
44672.33544921875,831.0,0.0,-47.0,118898.0
44699.018310546875,832.0,-9.0,-50.0,118895.0
44725.700927734375,833.0,-9.0,-43.0,118902.0
44752.3837890625,834.0,-2.0,-35.0,118910.0
44779.06640625,835.0,3.0,-29.0,118916.0
44805.7490234375,836.0,2.0,-25.0,118920.0
44832.431884765625,837.0,0.0,-24.0,118921.0
44859.114501953125,838.0,0.0,-21.0,118924.0
44885.79736328125,839.0,3.0,-20.0,118925.0
44912.47998046875,840.0,6.0,-16.0,118929.0
44939.16259765625,841.0,9.0,-10.0,118935.0
44965.845458984375,842.0,11.0,-7.0,118938.0
44992.528076171875,843.0,13.0,-7.0,118938.0
45019.2109375,844.0,16.0,-4.0,118941.0
45045.8935546875,845.0,21.0,-2.0,118943.0
45072.576171875,846.0,23.0,-1.0,118944.0
45099.259033203125,847.0,26.0,2.0,118947.0
45125.941650390625,848.0,31.0,9.0,118954.0
45152.62451171875,849.0,30.0,13.0,118958.0
45179.30712890625,850.0,30.0,11.0,118956.0
45205.98974609375,851.0,30.0,7.0,118952.0
45232.672607421875,852.0,23.0,6.0,118951.0
45259.355224609375,853.0,15.0,3.0,118948.0
45286.0380859375,854.0,3.0,-10.0,118935.0
45312.720703125,855.0,-10.0,-30.0,118915.0
45339.4033203125,856.0,-15.0,-45.0,118900.0
45366.086181640625,857.0,-19.0,-45.0,118900.0
45392.768798828125,858.0,-26.0,-40.0,118905.0
45419.45166015625,859.0,-35.0,-37.0,118908.0
45446.13427734375,860.0,-41.0,-30.0,118915.0
45472.81689453125,861.0,-39.0,-15.0,118930.0
45499.499755859375,862.0,-29.0,-3.0,118942.0
45526.182373046875,863.0,-19.0,4.0,118949.0
45552.865234375,864.0,-13.0,6.0,118951.0
45579.5478515625,865.0,-12.0,6.0,118951.0
45606.23046875,866.0,-15.0,6.0,118951.0
45632.913330078125,867.0,-15.0,3.0,118948.0
45659.595947265625,868.0,-11.0,4.0,118949.0
45686.27880859375,869.0,-7.0,10.0,118955.0
45712.96142578125,870.0,-6.0,13.0,118958.0
45739.64404296875,871.0,-7.0,12.0,118957.0
45766.326904296875,872.0,-5.0,13.0,118958.0
45793.009521484375,873.0,3.0,15.0,118960.0
45819.6923828125,874.0,8.0,20.0,118965.0
45846.375,875.0,8.0,25.0,118970.0
45873.0576171875,876.0,10.0,27.0,118972.0
45899.740478515625,877.0,14.0,27.0,118972.0
45926.423095703125,878.0,21.0,27.0,118972.0
45953.10595703125,879.0,27.0,24.0,118969.0
45979.78857421875,880.0,27.0,20.0,118965.0
46006.47119140625,881.0,20.0,16.0,118961.0
46033.154052734375,882.0,10.0,11.0,118956.0
46059.836669921875,883.0,0.0,8.0,118953.0
46086.51953125,884.0,-9.0,7.0,118952.0
46113.2021484375,885.0,-18.0,4.0,118949.0
46139.884765625,886.0,-22.0,1.0,118946.0
46166.567626953125,887.0,-19.0,-8.0,118937.0
46193.250244140625,888.0,-18.0,-16.0,118929.0
46219.93310546875,889.0,-15.0,-19.0,118926.0
46246.61572265625,890.0,-8.0,-19.0,118926.0
46273.29833984375,891.0,-4.0,-16.0,118929.0
46299.981201171875,892.0,-3.0,-10.0,118935.0
46326.663818359375,893.0,-3.0,-2.0,118943.0
46353.3466796875,894.0,-1.0,9.0,118954.0
46380.029296875,895.0,1.0,11.0,118956.0
46406.7119140625,896.0,4.0,10.0,118955.0
46433.394775390625,897.0,8.0,7.0,118952.0
46460.077392578125,898.0,9.0,3.0,118948.0
46486.760009765625,899.0,11.0,1.0,118946.0
46513.44287109375,900.0,16.0,3.0,118948.0
46540.12548828125,901.0,21.0,5.0,118950.0
46566.808349609375,902.0,25.0,7.0,118952.0
46593.490966796875,903.0,27.0,12.0,118957.0
46620.173583984375,904.0,28.0,17.0,118962.0
46646.8564453125,905.0,29.0,21.0,118966.0
46673.5390625,906.0,31.0,26.0,118971.0
46700.221923828125,907.0,29.0,28.0,118973.0
46726.904541015625,908.0,23.0,24.0,118969.0
46753.587158203125,909.0,16.0,14.0,118959.0
46780.27001953125,910.0,8.0,7.0,118952.0
46806.95263671875,911.0,1.0,5.0,118950.0
46833.635498046875,912.0,-7.0,-2.0,118943.0
46860.318115234375,913.0,-15.0,-13.0,118932.0
46887.000732421875,914.0,-17.0,-16.0,118929.0
46913.68359375,915.0,-20.0,-16.0,118929.0
46940.3662109375,916.0,-23.0,-19.0,118926.0
46967.049072265625,917.0,-22.0,-10.0,118935.0
46993.731689453125,918.0,-13.0,3.0,118948.0
47020.414306640625,919.0,-4.0,4.0,118949.0
47047.09716796875,920.0,-1.0,-3.0,118942.0
47073.77978515625,921.0,-2.0,-6.0,118939.0
47100.462646484375,922.0,-1.0,-3.0,118942.0
47127.145263671875,923.0,1.0,3.0,118948.0
47153.827880859375,924.0,0.0,12.0,118957.0
47180.5107421875,925.0,0.0,18.0,118963.0
47207.193359375,926.0,3.0,17.0,118962.0
47233.876220703125,927.0,6.0,13.0,118958.0
47260.558837890625,928.0,9.0,10.0,118955.0
47287.241455078125,929.0,15.0,10.0,118955.0
47313.92431640625,930.0,17.0,17.0,118962.0
47340.60693359375,931.0,14.0,27.0,118972.0
47367.289794921875,932.0,14.0,28.0,118973.0
47393.972412109375,933.0,19.0,24.0,118969.0
47420.655029296875,934.0,20.0,24.0,118969.0
47447.337890625,935.0,9.0,21.0,118966.0
47474.0205078125,936.0,-6.0,14.0,118959.0
47500.703369140625,937.0,-18.0,2.0,118947.0
47527.385986328125,938.0,-26.0,-9.0,118936.0
47554.068603515625,939.0,-30.0,-12.0,118933.0
47580.75146484375,940.0,-34.0,-11.0,118934.0
47607.43408203125,941.0,-41.0,-14.0,118931.0
47634.116943359375,942.0,-47.0,-15.0,118930.0
47660.799560546875,943.0,-44.0,-10.0,118935.0
47687.482177734375,944.0,-36.0,-5.0,118940.0
47714.1650390625,945.0,-28.0,-5.0,118940.0
47740.84765625,946.0,-27.0,-8.0,118937.0
47767.530517578125,947.0,-32.0,-14.0,118931.0
47794.213134765625,948.0,-33.0,-16.0,118929.0
47820.895751953125,949.0,-32.0,-13.0,118932.0
47847.57861328125,950.0,-27.0,-7.0,118938.0
47874.26123046875,951.0,-19.0,-5.0,118940.0
47900.944091796875,952.0,-10.0,-6.0,118939.0
47927.626708984375,953.0,-3.0,-4.0,118941.0
47954.309326171875,954.0,0.0,-5.0,118940.0
47980.9921875,955.0,-3.0,-7.0,118938.0
48007.6748046875,956.0,-1.0,-1.0,118944.0
48034.357666015625,957.0,6.0,6.0,118951.0
48061.040283203125,958.0,11.0,2.0,118947.0
48087.722900390625,959.0,14.0,-2.0,118943.0
48114.40576171875,960.0,13.0,1.0,118946.0
48141.08837890625,961.0,7.0,3.0,118948.0
48167.771240234375,962.0,-5.0,-5.0,118940.0
48194.453857421875,963.0,-19.0,-17.0,118928.0
48221.136474609375,964.0,-26.0,-21.0,118924.0
48247.8193359375,965.0,-28.0,-24.0,118921.0
48274.501953125,966.0,-34.0,-27.0,118918.0
48301.184814453125,967.0,-44.0,-28.0,118917.0
48327.867431640625,968.0,-46.0,-25.0,118920.0
48354.550048828125,969.0,-45.0,-24.0,118921.0
48381.23291015625,970.0,-40.0,-18.0,118927.0
48407.91552734375,971.0,-32.0,-5.0,118940.0
48434.598388671875,972.0,-30.0,-4.0,118941.0
48461.281005859375,973.0,-35.0,-15.0,118930.0
48487.963623046875,974.0,-36.0,-22.0,118923.0
48514.646484375,975.0,-30.0,-18.0,118927.0
48541.3291015625,976.0,-25.0,-11.0,118934.0
48568.011962890625,977.0,-20.0,-8.0,118937.0
48594.694580078125,978.0,-11.0,-7.0,118938.0
48621.377197265625,979.0,-3.0,-6.0,118939.0
48648.06005859375,980.0,1.0,-8.0,118937.0
48674.74267578125,981.0,6.0,-5.0,118940.0
48701.425537109375,982.0,10.0,8.0,118953.0
48728.108154296875,983.0,12.0,11.0,118956.0
48754.790771484375,984.0,14.0,5.0,118950.0
48781.4736328125,985.0,14.0,5.0,118950.0
48808.15625,986.0,15.0,6.0,118951.0
48834.8388671875,987.0,17.0,6.0,118951.0
48861.521728515625,988.0,15.0,5.0,118950.0
48888.204345703125,989.0,4.0,1.0,118946.0
48914.88720703125,990.0,-8.0,-7.0,118938.0
48941.56982421875,991.0,-15.0,-13.0,118932.0
48968.25244140625,992.0,-19.0,-20.0,118925.0
48994.935302734375,993.0,-27.0,-26.0,118919.0
49021.617919921875,994.0,-36.0,-25.0,118920.0
49048.30078125,995.0,-39.0,-19.0,118926.0
49074.9833984375,996.0,-36.0,-18.0,118927.0
49101.666015625,997.0,-26.0,-15.0,118930.0
49128.348876953125,998.0,-21.0,-7.0,118938.0
49155.031494140625,999.0,-24.0,-5.0,118940.0
49181.71435546875,1000.0,-26.0,-14.0,118931.0
49208.39697265625,1001.0,-22.0,-22.0,118923.0
49235.07958984375,1002.0,-15.0,-18.0,118927.0
49261.762451171875,1003.0,-6.0,-9.0,118936.0
49288.445068359375,1004.0,1.0,-3.0,118942.0
49315.1279296875,1005.0,3.0,4.0,118949.0
49341.810546875,1006.0,0.0,5.0,118950.0
49368.4931640625,1007.0,3.0,-1.0,118944.0
49395.176025390625,1008.0,12.0,1.0,118946.0
49421.858642578125,1009.0,19.0,8.0,118953.0
49448.54150390625,1010.0,18.0,13.0,118958.0
49475.22412109375,1011.0,13.0,16.0,118961.0
49501.90673828125,1012.0,10.0,20.0,118965.0
49528.589599609375,1013.0,11.0,27.0,118972.0
49555.272216796875,1014.0,10.0,33.0,118978.0
49581.955078125,1015.0,4.0,25.0,118970.0
49608.6376953125,1016.0,-10.0,5.0,118950.0
49635.3203125,1017.0,-25.0,-6.0,118939.0
49662.003173828125,1018.0,-29.0,-11.0,118934.0
49688.685791015625,1019.0,-27.0,-16.0,118929.0
49715.36865234375,1020.0,-29.0,-16.0,118929.0
49742.05126953125,1021.0,-35.0,-20.0,118925.0
49768.73388671875,1022.0,-42.0,-32.0,118913.0
49795.416748046875,1023.0,-41.0,-37.0,118908.0
49822.099365234375,1024.0,-30.0,-30.0,118915.0
49848.7822265625,1025.0,-20.0,-19.0,118926.0
49875.46484375,1026.0,-18.0,-11.0,118934.0
49902.1474609375,1027.0,-20.0,-8.0,118937.0
49928.830322265625,1028.0,-18.0,-6.0,118939.0
49955.512939453125,1029.0,-9.0,-5.0,118940.0
49982.19580078125,1030.0,0.0,-3.0,118942.0
50008.87841796875,1031.0,3.0,2.0,118947.0
50035.56103515625,1032.0,3.0,9.0,118954.0
50062.243896484375,1033.0,2.0,15.0,118960.0
50088.926513671875,1034.0,3.0,17.0,118962.0
50115.609375,1035.0,6.0,13.0,118958.0
50142.2919921875,1036.0,5.0,13.0,118958.0
50168.974609375,1037.0,5.0,14.0,118959.0
50195.657470703125,1038.0,9.0,10.0,118955.0
50222.340087890625,1039.0,13.0,13.0,118958.0
50249.02294921875,1040.0,12.0,25.0,118970.0
50275.70556640625,1041.0,7.0,24.0,118969.0
50302.38818359375,1042.0,-4.0,13.0,118958.0
50329.071044921875,1043.0,-13.0,7.0,118952.0
50355.753662109375,1044.0,-18.0,2.0,118947.0
50382.4365234375,1045.0,-24.0,-4.0,118941.0
50409.119140625,1046.0,-33.0,-10.0,118935.0
50435.8017578125,1047.0,-40.0,-17.0,118928.0
50462.484619140625,1048.0,-49.0,-16.0,118929.0
50489.167236328125,1049.0,-65.0,-5.0,118940.0
50515.85009765625,1050.0,-86.0,10.0,118955.0
50542.53271484375,1051.0,-96.0,17.0,118962.0
50569.21533203125,1052.0,-87.0,8.0,118953.0
50595.898193359375,1053.0,-67.0,-6.0,118939.0
50622.580810546875,1054.0,-52.0,-10.0,118935.0
50649.263671875,1055.0,-58.0,-4.0,118941.0
50675.9462890625,1056.0,-64.0,7.0,118952.0
50702.62890625,1057.0,-41.0,10.0,118955.0
50729.311767578125,1058.0,-15.0,8.0,118953.0
50755.994384765625,1059.0,-23.0,7.0,118952.0
50782.67724609375,1060.0,-44.0,10.0,118955.0
50809.35986328125,1061.0,-41.0,10.0,118955.0
50836.04248046875,1062.0,-15.0,9.0,118954.0
50862.725341796875,1063.0,-3.0,12.0,118957.0
50889.407958984375,1064.0,-4.0,20.0,118965.0
50916.0908203125,1065.0,0.0,29.0,118974.0
50942.7734375,1066.0,1.0,29.0,118974.0
50969.4560546875,1067.0,-10.0,19.0,118964.0
50996.138916015625,1068.0,-19.0,6.0,118951.0
51022.821533203125,1069.0,-19.0,-7.0,118938.0
51049.504150390625,1070.0,-22.0,-14.0,118931.0
51076.18701171875,1071.0,-28.0,-18.0,118927.0
51102.86962890625,1072.0,-32.0,-26.0,118919.0
51129.552490234375,1073.0,-37.0,-31.0,118914.0
51156.235107421875,1074.0,-45.0,-25.0,118920.0
51182.917724609375,1075.0,-47.0,-19.0,118926.0
51209.6005859375,1076.0,-37.0,-11.0,118934.0
51236.283203125,1077.0,-30.0,-6.0,118939.0
51262.966064453125,1078.0,-32.0,-12.0,118933.0
51289.648681640625,1079.0,-34.0,-18.0,118927.0
51316.331298828125,1080.0,-30.0,-16.0,118929.0
51343.01416015625,1081.0,-24.0,-15.0,118930.0
51369.69677734375,1082.0,-19.0,-13.0,118932.0
51396.379638671875,1083.0,-17.0,-4.0,118941.0
51423.062255859375,1084.0,-17.0,1.0,118946.0
51449.744873046875,1085.0,-17.0,-6.0,118939.0
51476.427734375,1086.0,-9.0,-11.0,118934.0
51503.1103515625,1087.0,4.0,-7.0,118938.0
51529.793212890625,1088.0,10.0,-4.0,118941.0
51556.475830078125,1089.0,10.0,-4.0,118941.0
51583.158447265625,1090.0,12.0,-2.0,118943.0
51609.84130859375,1091.0,18.0,2.0,118947.0
51636.52392578125,1092.0,19.0,1.0,118946.0
51663.206787109375,1093.0,10.0,-6.0,118939.0
51689.889404296875,1094.0,-4.0,-15.0,118930.0
51716.572021484375,1095.0,-16.0,-22.0,118923.0
51743.2548828125,1096.0,-24.0,-28.0,118917.0
51769.9375,1097.0,-33.0,-30.0,118915.0
51796.620361328125,1098.0,-44.0,-35.0,118910.0
51823.302978515625,1099.0,-51.0,-43.0,118902.0
51849.985595703125,1100.0,-47.0,-49.0,118896.0
51876.66845703125,1101.0,-35.0,-45.0,118900.0
51903.35107421875,1102.0,-28.0,-36.0,118909.0
51930.033935546875,1103.0,-22.0,-34.0,118911.0
51956.716552734375,1104.0,-18.0,-32.0,118913.0
51983.399169921875,1105.0,-17.0,-28.0,118917.0
52010.08203125,1106.0,-12.0,-25.0,118920.0
52036.7646484375,1107.0,-2.0,-29.0,118916.0
52063.447509765625,1108.0,5.0,-36.0,118909.0
52090.130126953125,1109.0,7.0,-39.0,118906.0
52116.812744140625,1110.0,9.0,-33.0,118912.0
52143.49560546875,1111.0,10.0,-19.0,118926.0
52170.17822265625,1112.0,7.0,-7.0,118938.0
52196.861083984375,1113.0,6.0,-6.0,118939.0
52223.543701171875,1114.0,9.0,-11.0,118934.0
52250.226318359375,1115.0,14.0,-11.0,118934.0
52276.9091796875,1116.0,15.0,-6.0,118939.0
52303.591796875,1117.0,17.0,0.0,118945.0
52330.274658203125,1118.0,22.0,4.0,118949.0
52356.957275390625,1119.0,24.0,4.0,118949.0
52383.639892578125,1120.0,14.0,-1.0,118944.0
52410.32275390625,1121.0,0.0,-10.0,118935.0
52437.00537109375,1122.0,-10.0,-20.0,118925.0
52463.688232421875,1123.0,-15.0,-28.0,118917.0
52490.370849609375,1124.0,-23.0,-34.0,118911.0
52517.053466796875,1125.0,-30.0,-39.0,118906.0
52543.736328125,1126.0,-33.0,-37.0,118908.0
52570.4189453125,1127.0,-35.0,-30.0,118915.0
52597.101806640625,1128.0,-34.0,-26.0,118919.0
52623.784423828125,1129.0,-28.0,-26.0,118919.0
52650.467041015625,1130.0,-18.0,-27.0,118918.0
52677.14990234375,1131.0,-15.0,-22.0,118923.0
52703.83251953125,1132.0,-20.0,-14.0,118931.0
52730.515380859375,1133.0,-21.0,-10.0,118935.0
52757.197998046875,1134.0,-18.0,-12.0,118933.0
52783.880615234375,1135.0,-14.0,-16.0,118929.0
52810.5634765625,1136.0,-9.0,-16.0,118929.0
52837.24609375,1137.0,-6.0,-13.0,118932.0
52863.928955078125,1138.0,-2.0,-9.0,118936.0
52890.611572265625,1139.0,2.0,0.0,118945.0
52917.294189453125,1140.0,6.0,4.0,118949.0
52943.97705078125,1141.0,9.0,2.0,118947.0
52970.65966796875,1142.0,9.0,5.0,118950.0
52997.342529296875,1143.0,12.0,11.0,118956.0
53024.025146484375,1144.0,18.0,11.0,118956.0
53050.707763671875,1145.0,23.0,8.0,118953.0
53077.390625,1146.0,19.0,7.0,118952.0
53104.0732421875,1147.0,8.0,0.0,118945.0
53130.756103515625,1148.0,-1.0,-12.0,118933.0
53157.438720703125,1149.0,-10.0,-25.0,118920.0
53184.121337890625,1150.0,-15.0,-33.0,118912.0
53210.80419921875,1151.0,-18.0,-36.0,118909.0
53237.48681640625,1152.0,-22.0,-35.0,118910.0
53264.169677734375,1153.0,-29.0,-38.0,118907.0
53290.852294921875,1154.0,-29.0,-40.0,118905.0
53317.534912109375,1155.0,-22.0,-35.0,118910.0
53344.2177734375,1156.0,-17.0,-29.0,118916.0
53370.900390625,1157.0,-15.0,-26.0,118919.0
53397.5830078125,1158.0,-15.0,-26.0,118919.0
53424.265869140625,1159.0,-14.0,-25.0,118920.0
53450.948486328125,1160.0,-12.0,-26.0,118919.0
53477.63134765625,1161.0,-12.0,-28.0,118917.0
53504.31396484375,1162.0,-13.0,-29.0,118916.0
53530.99658203125,1163.0,-9.0,-26.0,118919.0
53557.679443359375,1164.0,-4.0,-16.0,118929.0
53584.362060546875,1165.0,-3.0,-10.0,118935.0
53611.044921875,1166.0,-2.0,-10.0,118935.0
53637.7275390625,1167.0,2.0,-7.0,118938.0
53664.41015625,1168.0,8.0,-6.0,118939.0
53691.093017578125,1169.0,9.0,-5.0,118940.0
53717.775634765625,1170.0,12.0,2.0,118947.0
53744.45849609375,1171.0,12.0,4.0,118949.0
53771.14111328125,1172.0,7.0,2.0,118947.0
53797.82373046875,1173.0,4.0,2.0,118947.0
53824.506591796875,1174.0,5.0,-4.0,118941.0
53851.189208984375,1175.0,0.0,-21.0,118924.0
53877.8720703125,1176.0,-13.0,-36.0,118909.0
53904.5546875,1177.0,-22.0,-41.0,118904.0
53931.2373046875,1178.0,-25.0,-36.0,118909.0
53957.920166015625,1179.0,-27.0,-32.0,118913.0
53984.602783203125,1180.0,-37.0,-32.0,118913.0
54011.28564453125,1181.0,-47.0,-34.0,118911.0
54037.96826171875,1182.0,-43.0,-35.0,118910.0
54064.65087890625,1183.0,-34.0,-33.0,118912.0
54091.333740234375,1184.0,-29.0,-34.0,118911.0
54118.016357421875,1185.0,-26.0,-31.0,118914.0
54144.69921875,1186.0,-23.0,-27.0,118918.0
54171.3818359375,1187.0,-22.0,-33.0,118912.0
54198.064453125,1188.0,-21.0,-40.0,118905.0
54224.747314453125,1189.0,-21.0,-37.0,118908.0
54251.429931640625,1190.0,-18.0,-27.0,118918.0
54278.11279296875,1191.0,-11.0,-20.0,118925.0
54304.79541015625,1192.0,-8.0,-21.0,118924.0
54331.47802734375,1193.0,-8.0,-24.0,118921.0
54358.160888671875,1194.0,-4.0,-21.0,118924.0
54384.843505859375,1195.0,2.0,-13.0,118932.0
54411.5263671875,1196.0,5.0,-9.0,118936.0
54438.208984375,1197.0,6.0,-11.0,118934.0
54464.8916015625,1198.0,8.0,-17.0,118928.0
54491.574462890625,1199.0,12.0,-18.0,118927.0
54518.257080078125,1200.0,19.0,-7.0,118938.0
54544.93994140625,1201.0,25.0,1.0,118946.0
54571.62255859375,1202.0,24.0,-3.0,118942.0
54598.30517578125,1203.0,17.0,-11.0,118934.0
54624.988037109375,1204.0,2.0,-20.0,118925.0
54651.670654296875,1205.0,-11.0,-31.0,118914.0
54678.353515625,1206.0,-17.0,-37.0,118908.0
54705.0361328125,1207.0,-22.0,-37.0,118908.0
54731.71875,1208.0,-28.0,-40.0,118905.0
54758.401611328125,1209.0,-28.0,-46.0,118899.0
54785.084228515625,1210.0,-31.0,-52.0,118893.0
54811.76708984375,1211.0,-36.0,-51.0,118894.0
54838.44970703125,1212.0,-33.0,-44.0,118901.0
54865.13232421875,1213.0,-30.0,-38.0,118907.0
54891.815185546875,1214.0,-26.0,-33.0,118912.0
54918.497802734375,1215.0,-20.0,-27.0,118918.0
54945.1806640625,1216.0,-16.0,-25.0,118920.0
54971.86328125,1217.0,-16.0,-25.0,118920.0
54998.5458984375,1218.0,-16.0,-25.0,118920.0
55025.228759765625,1219.0,-18.0,-28.0,118917.0
55051.911376953125,1220.0,-20.0,-29.0,118916.0
55078.59423828125,1221.0,-16.0,-26.0,118919.0
55105.27685546875,1222.0,-12.0,-22.0,118923.0
55131.95947265625,1223.0,-11.0,-16.0,118929.0
55158.642333984375,1224.0,-10.0,-12.0,118933.0
55185.324951171875,1225.0,-3.0,-14.0,118931.0
55212.0078125,1226.0,12.0,-8.0,118937.0
55238.6904296875,1227.0,24.0,2.0,118947.0
55265.373046875,1228.0,26.0,5.0,118950.0
55292.055908203125,1229.0,22.0,5.0,118950.0
55318.738525390625,1230.0,19.0,5.0,118950.0
55345.42138671875,1231.0,26.0,4.0,118949.0
55372.10400390625,1232.0,39.0,4.0,118949.0
55398.78662109375,1233.0,42.0,0.0,118945.0
55425.469482421875,1234.0,25.0,-11.0,118934.0
55452.152099609375,1235.0,4.0,-16.0,118929.0
55478.8349609375,1236.0,-8.0,-16.0,118929.0
55505.517578125,1237.0,-11.0,-19.0,118926.0
55532.2001953125,1238.0,-11.0,-26.0,118919.0
55558.883056640625,1239.0,-13.0,-35.0,118910.0
55585.565673828125,1240.0,-14.0,-44.0,118901.0
55612.248291015625,1241.0,-13.0,-46.0,118899.0
55638.93115234375,1242.0,-8.0,-36.0,118909.0
55665.61376953125,1243.0,-1.0,-21.0,118924.0
55692.296630859375,1244.0,3.0,-18.0,118927.0
55718.979248046875,1245.0,0.0,-26.0,118919.0
55745.661865234375,1246.0,-3.0,-27.0,118918.0
55772.3447265625,1247.0,1.0,-21.0,118924.0
55799.02734375,1248.0,6.0,-12.0,118933.0
55825.710205078125,1249.0,5.0,-5.0,118940.0
55852.392822265625,1250.0,5.0,-3.0,118942.0
55879.075439453125,1251.0,8.0,-2.0,118943.0
55905.75830078125,1252.0,10.0,2.0,118947.0
55932.44091796875,1253.0,11.0,6.0,118951.0
55959.123779296875,1254.0,15.0,4.0,118949.0
55985.806396484375,1255.0,13.0,-2.0,118943.0
56012.489013671875,1256.0,10.0,-1.0,118944.0
56039.171875,1257.0,12.0,3.0,118948.0
56065.8544921875,1258.0,19.0,4.0,118949.0
56092.537353515625,1259.0,23.0,4.0,118949.0
56119.219970703125,1260.0,23.0,6.0,118951.0
56145.902587890625,1261.0,22.0,8.0,118953.0
56172.58544921875,1262.0,19.0,9.0,118954.0
56199.26806640625,1263.0,5.0,5.0,118950.0
56225.950927734375,1264.0,-13.0,-2.0,118943.0
56252.633544921875,1265.0,-21.0,-9.0,118936.0
56279.316162109375,1266.0,-18.0,-15.0,118930.0
56305.9990234375,1267.0,-18.0,-14.0,118931.0
56332.681640625,1268.0,-24.0,-12.0,118933.0
56359.364501953125,1269.0,-31.0,-19.0,118926.0
56386.047119140625,1270.0,-29.0,-27.0,118918.0
56412.729736328125,1271.0,-18.0,-27.0,118918.0
56439.41259765625,1272.0,-11.0,-21.0,118924.0
56466.09521484375,1273.0,-12.0,-22.0,118923.0
56492.778076171875,1274.0,-14.0,-29.0,118916.0
56519.460693359375,1275.0,-13.0,-32.0,118913.0
56546.143310546875,1276.0,-15.0,-30.0,118915.0
56572.826171875,1277.0,-17.0,-27.0,118918.0
56599.5087890625,1278.0,-18.0,-24.0,118921.0
56626.191650390625,1279.0,-18.0,-22.0,118923.0
56652.874267578125,1280.0,-18.0,-24.0,118921.0
56679.556884765625,1281.0,-14.0,-24.0,118921.0
56706.23974609375,1282.0,-6.0,-22.0,118923.0
56732.92236328125,1283.0,0.0,-14.0,118931.0
56759.605224609375,1284.0,3.0,-5.0,118940.0
56786.287841796875,1285.0,4.0,-1.0,118944.0
56812.970458984375,1286.0,4.0,-2.0,118943.0
56839.6533203125,1287.0,5.0,-2.0,118943.0
56866.3359375,1288.0,9.0,2.0,118947.0
56893.018798828125,1289.0,13.0,5.0,118950.0
56919.701416015625,1290.0,10.0,-2.0,118943.0
56946.384033203125,1291.0,-8.0,-15.0,118930.0
56973.06689453125,1292.0,-27.0,-24.0,118921.0
56999.74951171875,1293.0,-34.0,-29.0,118916.0
57026.432373046875,1294.0,-34.0,-28.0,118917.0
57053.114990234375,1295.0,-34.0,-30.0,118915.0
57079.797607421875,1296.0,-37.0,-34.0,118911.0
57106.48046875,1297.0,-41.0,-36.0,118909.0
57133.1630859375,1298.0,-40.0,-35.0,118910.0
57159.845947265625,1299.0,-34.0,-31.0,118914.0
57186.528564453125,1300.0,-22.0,-29.0,118916.0
57213.211181640625,1301.0,-18.0,-33.0,118912.0
57239.89404296875,1302.0,-26.0,-36.0,118909.0
57266.57666015625,1303.0,-33.0,-34.0,118911.0
57293.259521484375,1304.0,-29.0,-26.0,118919.0
57319.942138671875,1305.0,-19.0,-25.0,118920.0
57346.624755859375,1306.0,-11.0,-30.0,118915.0
57373.3076171875,1307.0,-10.0,-30.0,118915.0
57399.990234375,1308.0,-9.0,-26.0,118919.0
57426.673095703125,1309.0,-3.0,-22.0,118923.0
57453.355712890625,1310.0,2.0,-22.0,118923.0
57480.038330078125,1311.0,4.0,-22.0,118923.0
57506.72119140625,1312.0,8.0,-20.0,118925.0
57533.40380859375,1313.0,10.0,-18.0,118927.0
57560.086669921875,1314.0,11.0,-16.0,118929.0
57586.769287109375,1315.0,14.0,-13.0,118932.0
57613.451904296875,1316.0,21.0,-9.0,118936.0
57640.134765625,1317.0,23.0,-4.0,118941.0
57666.8173828125,1318.0,16.0,-10.0,118935.0
57693.500244140625,1319.0,1.0,-23.0,118922.0
57720.182861328125,1320.0,-15.0,-33.0,118912.0
57746.865478515625,1321.0,-26.0,-40.0,118905.0
57773.54833984375,1322.0,-33.0,-53.0,118892.0
57800.23095703125,1323.0,-40.0,-63.0,118882.0
57826.913818359375,1324.0,-48.0,-61.0,118884.0
57853.596435546875,1325.0,-52.0,-51.0,118894.0
57880.279052734375,1326.0,-52.0,-44.0,118901.0
57906.9619140625,1327.0,-47.0,-41.0,118904.0
57933.64453125,1328.0,-43.0,-41.0,118904.0
57960.3271484375,1329.0,-42.0,-44.0,118901.0
57987.010009765625,1330.0,-40.0,-39.0,118906.0
58013.692626953125,1331.0,-37.0,-30.0,118915.0
58040.37548828125,1332.0,-35.0,-23.0,118922.0
58067.05810546875,1333.0,-31.0,-19.0,118926.0
58093.74072265625,1334.0,-25.0,-13.0,118932.0
58120.423583984375,1335.0,-18.0,-11.0,118934.0
58147.106201171875,1336.0,-13.0,-13.0,118932.0
58173.7890625,1337.0,-10.0,-15.0,118930.0
58200.4716796875,1338.0,-5.0,-14.0,118931.0
58227.154296875,1339.0,-6.0,-10.0,118935.0
58253.837158203125,1340.0,-9.0,-9.0,118936.0
58280.519775390625,1341.0,-4.0,-14.0,118931.0
58307.20263671875,1342.0,5.0,-16.0,118929.0
58333.88525390625,1343.0,5.0,-14.0,118931.0
58360.56787109375,1344.0,4.0,-15.0,118930.0
58387.250732421875,1345.0,4.0,-23.0,118922.0
58413.933349609375,1346.0,-4.0,-38.0,118907.0
58440.6162109375,1347.0,-19.0,-49.0,118896.0
58467.298828125,1348.0,-29.0,-55.0,118890.0
58493.9814453125,1349.0,-31.0,-55.0,118890.0
58520.664306640625,1350.0,-35.0,-50.0,118895.0
58547.346923828125,1351.0,-42.0,-44.0,118901.0
58574.02978515625,1352.0,-47.0,-39.0,118906.0
58600.71240234375,1353.0,-47.0,-35.0,118910.0
58627.39501953125,1354.0,-40.0,-24.0,118921.0
58654.077880859375,1355.0,-33.0,-19.0,118926.0
58680.760498046875,1356.0,-31.0,-22.0,118923.0
58707.443359375,1357.0,-27.0,-25.0,118920.0
58734.1259765625,1358.0,-20.0,-26.0,118919.0
58760.80859375,1359.0,-8.0,-26.0,118919.0
58787.491455078125,1360.0,4.0,-25.0,118920.0
58814.174072265625,1361.0,7.0,-26.0,118919.0
58840.85693359375,1362.0,2.0,-26.0,118919.0
58867.53955078125,1363.0,-6.0,-24.0,118921.0
58894.22216796875,1364.0,-10.0,-19.0,118926.0
58920.905029296875,1365.0,-3.0,-14.0,118931.0
58947.587646484375,1366.0,11.0,-12.0,118933.0
58974.2705078125,1367.0,17.0,-10.0,118935.0
59000.953125,1368.0,20.0,-6.0,118939.0
59027.6357421875,1369.0,24.0,-4.0,118941.0
59054.318603515625,1370.0,25.0,-4.0,118941.0
59081.001220703125,1371.0,20.0,-6.0,118939.0
59107.68408203125,1372.0,9.0,-16.0,118929.0
59134.36669921875,1373.0,-4.0,-28.0,118917.0
59161.04931640625,1374.0,-12.0,-35.0,118910.0
59187.732177734375,1375.0,-17.0,-37.0,118908.0
59214.414794921875,1376.0,-23.0,-38.0,118907.0
59241.09765625,1377.0,-30.0,-42.0,118903.0
59267.7802734375,1378.0,-31.0,-42.0,118903.0
59294.462890625,1379.0,-28.0,-36.0,118909.0
59321.145751953125,1380.0,-21.0,-25.0,118920.0
59347.828369140625,1381.0,-16.0,-19.0,118926.0
59374.51123046875,1382.0,-15.0,-20.0,118925.0
59401.19384765625,1383.0,-15.0,-23.0,118922.0
59427.87646484375,1384.0,-14.0,-26.0,118919.0
59454.559326171875,1385.0,-19.0,-28.0,118917.0
59481.241943359375,1386.0,-27.0,-26.0,118919.0
59507.9248046875,1387.0,-27.0,-22.0,118923.0
59534.607421875,1388.0,-20.0,-16.0,118929.0
59561.2900390625,1389.0,-19.0,-12.0,118933.0
59587.972900390625,1390.0,-19.0,-13.0,118932.0
59614.655517578125,1391.0,-17.0,-18.0,118927.0
59641.33837890625,1392.0,-13.0,-18.0,118927.0
59668.02099609375,1393.0,-7.0,-10.0,118935.0
59694.70361328125,1394.0,-1.0,-4.0,118941.0
59721.386474609375,1395.0,3.0,-4.0,118941.0
59748.069091796875,1396.0,8.0,-7.0,118938.0
59774.751953125,1397.0,11.0,-10.0,118935.0
59801.4345703125,1398.0,5.0,-15.0,118930.0
59828.1171875,1399.0,-11.0,-28.0,118917.0
59854.800048828125,1400.0,-25.0,-41.0,118904.0
59881.482666015625,1401.0,-32.0,-49.0,118896.0
59908.16552734375,1402.0,-37.0,-50.0,118895.0
59934.84814453125,1403.0,-47.0,-52.0,118893.0
59961.53076171875,1404.0,-50.0,-57.0,118888.0
59988.213623046875,1405.0,-45.0,-63.0,118882.0
60014.896240234375,1406.0,-39.0,-58.0,118887.0
60041.5791015625,1407.0,-38.0,-46.0,118899.0
60068.26171875,1408.0,-35.0,-34.0,118911.0
60094.9443359375,1409.0,-30.0,-30.0,118915.0
60121.627197265625,1410.0,-25.0,-29.0,118916.0
60148.309814453125,1411.0,-24.0,-29.0,118916.0
60174.992431640625,1412.0,-25.0,-26.0,118919.0
60201.67529296875,1413.0,-21.0,-25.0,118920.0
60228.35791015625,1414.0,-13.0,-27.0,118918.0
60255.040771484375,1415.0,-12.0,-24.0,118921.0
60281.723388671875,1416.0,-16.0,-16.0,118929.0
60308.406005859375,1417.0,-18.0,-9.0,118936.0
60335.0888671875,1418.0,-15.0,-4.0,118941.0
60361.771484375,1419.0,-8.0,-2.0,118943.0
60388.454345703125,1420.0,-3.0,-3.0,118942.0
60415.136962890625,1421.0,0.0,-4.0,118941.0
60441.819580078125,1422.0,3.0,-6.0,118939.0
60468.50244140625,1423.0,5.0,-10.0,118935.0
60495.18505859375,1424.0,6.0,-8.0,118937.0
60521.867919921875,1425.0,5.0,-4.0,118941.0
60548.550537109375,1426.0,-6.0,-9.0,118936.0
60575.233154296875,1427.0,-19.0,-15.0,118930.0
60601.916015625,1428.0,-26.0,-17.0,118928.0
60628.5986328125,1429.0,-28.0,-23.0,118922.0
60655.281494140625,1430.0,-30.0,-27.0,118918.0
60681.964111328125,1431.0,-35.0,-30.0,118915.0
60708.646728515625,1432.0,-39.0,-36.0,118909.0
60735.32958984375,1433.0,-35.0,-42.0,118903.0
60762.01220703125,1434.0,-26.0,-42.0,118903.0
60788.695068359375,1435.0,-21.0,-38.0,118907.0
60815.377685546875,1436.0,-20.0,-33.0,118912.0
60842.060302734375,1437.0,-19.0,-32.0,118913.0
60868.7431640625,1438.0,-17.0,-30.0,118915.0
60895.42578125,1439.0,-14.0,-20.0,118925.0
60922.108642578125,1440.0,-9.0,-11.0,118934.0
60948.791259765625,1441.0,-6.0,-9.0,118936.0
60975.473876953125,1442.0,-2.0,-11.0,118934.0
61002.15673828125,1443.0,4.0,-9.0,118936.0
61028.83935546875,1444.0,7.0,-3.0,118942.0
61055.522216796875,1445.0,6.0,0.0,118945.0
61082.204833984375,1446.0,4.0,-2.0,118943.0
61108.887451171875,1447.0,-2.0,-3.0,118942.0
61135.5703125,1448.0,-11.0,0.0,118945.0
61162.2529296875,1449.0,-13.0,4.0,118949.0
61188.935791015625,1450.0,-7.0,4.0,118949.0
61215.618408203125,1451.0,-9.0,-3.0,118942.0
61242.301025390625,1452.0,-19.0,-12.0,118933.0
61268.98388671875,1453.0,-32.0,-25.0,118920.0
61295.66650390625,1454.0,-40.0,-37.0,118908.0
61322.349365234375,1455.0,-41.0,-45.0,118900.0
61349.031982421875,1456.0,-41.0,-46.0,118899.0
61375.714599609375,1457.0,-46.0,-45.0,118900.0
61402.3974609375,1458.0,-47.0,-45.0,118900.0
61429.080078125,1459.0,-47.0,-47.0,118898.0
61455.762939453125,1460.0,-42.0,-43.0,118902.0
61482.445556640625,1461.0,-32.0,-34.0,118911.0
61509.128173828125,1462.0,-23.0,-29.0,118916.0
61535.81103515625,1463.0,-23.0,-32.0,118913.0
61562.49365234375,1464.0,-21.0,-35.0,118910.0
61589.176513671875,1465.0,-12.0,-30.0,118915.0
61615.859130859375,1466.0,-9.0,-23.0,118922.0
61642.541748046875,1467.0,-12.0,-27.0,118918.0
61669.224609375,1468.0,-15.0,-32.0,118913.0
61695.9072265625,1469.0,-12.0,-35.0,118910.0
61722.590087890625,1470.0,-8.0,-34.0,118911.0
61749.272705078125,1471.0,-5.0,-28.0,118917.0
61775.955322265625,1472.0,-1.0,-20.0,118925.0
61802.63818359375,1473.0,5.0,-15.0,118930.0
61829.32080078125,1474.0,9.0,-10.0,118935.0
61856.003662109375,1475.0,13.0,-2.0,118943.0
61882.686279296875,1476.0,12.0,1.0,118946.0
61909.368896484375,1477.0,5.0,-7.0,118938.0
61936.0517578125,1478.0,-8.0,-20.0,118925.0
61962.734375,1479.0,-18.0,-24.0,118921.0
61989.417236328125,1480.0,-22.0,-23.0,118922.0
62016.099853515625,1481.0,-26.0,-27.0,118918.0
62042.782470703125,1482.0,-34.0,-37.0,118908.0
62069.46533203125,1483.0,-44.0,-42.0,118903.0
62096.14794921875,1484.0,-49.0,-46.0,118899.0
62122.830810546875,1485.0,-45.0,-51.0,118894.0
62149.513427734375,1486.0,-36.0,-54.0,118891.0
62176.196044921875,1487.0,-32.0,-51.0,118894.0
62202.87890625,1488.0,-32.0,-49.0,118896.0
62229.5615234375,1489.0,-35.0,-52.0,118893.0
62256.244384765625,1490.0,-34.0,-48.0,118897.0
62282.927001953125,1491.0,-29.0,-38.0,118907.0
62309.609619140625,1492.0,-27.0,-34.0,118911.0
62336.29248046875,1493.0,-24.0,-39.0,118906.0
62362.97509765625,1494.0,-23.0,-36.0,118909.0
62389.657958984375,1495.0,-24.0,-26.0,118919.0
62416.340576171875,1496.0,-26.0,-19.0,118926.0
62443.023193359375,1497.0,-19.0,-19.0,118926.0
62469.7060546875,1498.0,-11.0,-21.0,118924.0
62496.388671875,1499.0,-9.0,-20.0,118925.0
62523.0712890625,1500.0,-5.0,-14.0,118931.0
62549.754150390625,1501.0,1.0,-5.0,118940.0
62576.436767578125,1502.0,4.0,1.0,118946.0
62603.11962890625,1503.0,2.0,-1.0,118944.0
62629.80224609375,1504.0,-9.0,-12.0,118933.0
62656.48486328125,1505.0,-22.0,-28.0,118917.0
62683.167724609375,1506.0,-29.0,-39.0,118906.0
62709.850341796875,1507.0,-34.0,-42.0,118903.0
62736.533203125,1508.0,-41.0,-45.0,118900.0
62763.2158203125,1509.0,-46.0,-44.0,118901.0
62789.8984375,1510.0,-47.0,-41.0,118904.0
62816.581298828125,1511.0,-42.0,-35.0,118910.0
62843.263916015625,1512.0,-38.0,-29.0,118916.0
62869.94677734375,1513.0,-32.0,-23.0,118922.0
62896.62939453125,1514.0,-28.0,-20.0,118925.0
62923.31201171875,1515.0,-31.0,-17.0,118928.0
62949.994873046875,1516.0,-35.0,-14.0,118931.0
62976.677490234375,1517.0,-33.0,-19.0,118926.0
63003.3603515625,1518.0,-24.0,-26.0,118919.0
63030.04296875,1519.0,-16.0,-26.0,118919.0
63056.7255859375,1520.0,-13.0,-25.0,118920.0
63083.408447265625,1521.0,-12.0,-24.0,118921.0
63110.091064453125,1522.0,-8.0,-17.0,118928.0
63136.77392578125,1523.0,0.0,-2.0,118943.0
63163.45654296875,1524.0,5.0,10.0,118955.0
63190.13916015625,1525.0,4.0,15.0,118960.0
63216.822021484375,1526.0,4.0,20.0,118965.0
63243.504638671875,1527.0,10.0,29.0,118974.0
63270.1875,1528.0,15.0,32.0,118977.0
63296.8701171875,1529.0,16.0,29.0,118974.0
63323.552734375,1530.0,12.0,18.0,118963.0
63350.235595703125,1531.0,-2.0,3.0,118948.0
63376.918212890625,1532.0,-19.0,-12.0,118933.0
63403.60107421875,1533.0,-28.0,-17.0,118928.0
63430.28369140625,1534.0,-28.0,-15.0,118930.0
63456.96630859375,1535.0,-28.0,-16.0,118929.0
63483.649169921875,1536.0,-36.0,-19.0,118926.0
63510.331787109375,1537.0,-44.0,-24.0,118921.0
63537.0146484375,1538.0,-43.0,-30.0,118915.0
63563.697265625,1539.0,-32.0,-30.0,118915.0
63590.3798828125,1540.0,-20.0,-21.0,118924.0
63617.062744140625,1541.0,-17.0,-10.0,118935.0
63643.745361328125,1542.0,-22.0,-5.0,118940.0
63670.42822265625,1543.0,-25.0,-3.0,118942.0
63697.11083984375,1544.0,-21.0,5.0,118950.0
63723.79345703125,1545.0,-13.0,15.0,118960.0
63750.476318359375,1546.0,-9.0,15.0,118960.0
63777.158935546875,1547.0,-10.0,10.0,118955.0
63803.841796875,1548.0,-6.0,3.0,118948.0
63830.5244140625,1549.0,4.0,-2.0,118943.0
63857.20703125,1550.0,10.0,-2.0,118943.0
63883.889892578125,1551.0,8.0,3.0,118948.0
63910.572509765625,1552.0,4.0,13.0,118958.0
63937.25537109375,1553.0,8.0,25.0,118970.0
63963.93798828125,1554.0,13.0,30.0,118975.0
63990.62060546875,1555.0,16.0,23.0,118968.0
64017.303466796875,1556.0,24.0,15.0,118960.0
64043.986083984375,1557.0,29.0,15.0,118960.0
64070.6689453125,1558.0,17.0,12.0,118957.0
64097.3515625,1559.0,1.0,-3.0,118942.0
64124.0341796875,1560.0,-6.0,-18.0,118927.0
64150.717041015625,1561.0,-8.0,-23.0,118922.0
64177.399658203125,1562.0,-13.0,-26.0,118919.0
64204.08251953125,1563.0,-18.0,-30.0,118915.0
64230.76513671875,1564.0,-17.0,-28.0,118917.0
64257.44775390625,1565.0,-13.0,-23.0,118922.0
64284.130615234375,1566.0,-6.0,-20.0,118925.0
64310.813232421875,1567.0,-2.0,-18.0,118927.0
64337.49609375,1568.0,-1.0,-15.0,118930.0
64364.1787109375,1569.0,-1.0,-11.0,118934.0
64390.861328125,1570.0,-3.0,-11.0,118934.0
64417.544189453125,1571.0,-2.0,-14.0,118931.0
64444.226806640625,1572.0,3.0,-10.0,118935.0
64470.90966796875,1573.0,10.0,2.0,118947.0
64497.59228515625,1574.0,15.0,10.0,118955.0
64524.27490234375,1575.0,17.0,8.0,118953.0
64550.957763671875,1576.0,23.0,3.0,118948.0
64577.640380859375,1577.0,28.0,4.0,118949.0
64604.3232421875,1578.0,29.0,11.0,118956.0
64631.005859375,1579.0,27.0,17.0,118962.0
64657.6884765625,1580.0,27.0,17.0,118962.0
64684.371337890625,1581.0,33.0,18.0,118963.0
64711.053955078125,1582.0,37.0,22.0,118967.0
64737.736572265625,1583.0,32.0,21.0,118966.0
64764.41943359375,1584.0,19.0,10.0,118955.0
64791.10205078125,1585.0,1.0,-5.0,118940.0
64817.784912109375,1586.0,-16.0,-13.0,118932.0
64844.467529296875,1587.0,-25.0,-17.0,118928.0
64871.150146484375,1588.0,-30.0,-23.0,118922.0
64897.8330078125,1589.0,-33.0,-28.0,118917.0
64924.515625,1590.0,-36.0,-30.0,118915.0
64951.198486328125,1591.0,-37.0,-26.0,118919.0
64977.881103515625,1592.0,-34.0,-17.0,118928.0
65004.563720703125,1593.0,-25.0,-12.0,118933.0
65031.24658203125,1594.0,-20.0,-13.0,118932.0
65057.92919921875,1595.0,-24.0,-13.0,118932.0
65084.612060546875,1596.0,-21.0,-12.0,118933.0
65111.294677734375,1597.0,-10.0,-7.0,118938.0
65137.977294921875,1598.0,-1.0,-5.0,118940.0
65164.66015625,1599.0,3.0,-4.0,118941.0
65191.3427734375,1600.0,6.0,-3.0,118942.0
65218.025634765625,1601.0,7.0,0.0,118945.0
65244.708251953125,1602.0,14.0,6.0,118951.0
65271.390869140625,1603.0,22.0,11.0,118956.0
65298.07373046875,1604.0,20.0,12.0,118957.0
65324.75634765625,1605.0,16.0,3.0,118948.0
65351.439208984375,1606.0,14.0,-2.0,118943.0
65378.121826171875,1607.0,14.0,4.0,118949.0
65404.804443359375,1608.0,14.0,14.0,118959.0
65431.4873046875,1609.0,18.0,22.0,118967.0
65458.169921875,1610.0,22.0,28.0,118973.0
65484.852783203125,1611.0,11.0,21.0,118966.0
65511.535400390625,1612.0,-12.0,3.0,118948.0
65538.21801757812,1613.0,-32.0,-10.0,118935.0
65564.90087890625,1614.0,-41.0,-17.0,118928.0
65591.58349609375,1615.0,-43.0,-19.0,118926.0
65618.26635742188,1616.0,-44.0,-17.0,118928.0
65644.94897460938,1617.0,-47.0,-17.0,118928.0
65671.63159179688,1618.0,-50.0,-21.0,118924.0
65698.314453125,1619.0,-50.0,-22.0,118923.0
65724.9970703125,1620.0,-47.0,-19.0,118926.0
65751.67993164062,1621.0,-38.0,-9.0,118936.0
65778.36254882812,1622.0,-29.0,-2.0,118943.0
65805.04516601562,1623.0,-25.0,-4.0,118941.0
65831.72802734375,1624.0,-26.0,-7.0,118938.0
65858.41064453125,1625.0,-23.0,-7.0,118938.0
65885.09350585938,1626.0,-22.0,-6.0,118939.0
65911.77612304688,1627.0,-23.0,2.0,118947.0
65938.45874023438,1628.0,-22.0,11.0,118956.0
65965.1416015625,1629.0,-19.0,15.0,118960.0
65991.82421875,1630.0,-15.0,18.0,118963.0
66018.50708007812,1631.0,-11.0,17.0,118962.0
66045.18969726562,1632.0,-8.0,14.0,118959.0
66071.87231445312,1633.0,-1.0,11.0,118956.0
66098.55517578125,1634.0,4.0,10.0,118955.0
66125.23779296875,1635.0,7.0,15.0,118960.0
66151.92065429688,1636.0,5.0,24.0,118969.0
66178.60327148438,1637.0,3.0,26.0,118971.0
66205.28588867188,1638.0,1.0,26.0,118971.0
66231.96875,1639.0,-9.0,20.0,118965.0
66258.6513671875,1640.0,-25.0,4.0,118949.0
66285.33422851562,1641.0,-35.0,-13.0,118932.0
66312.01684570312,1642.0,-36.0,-21.0,118924.0
66338.69946289062,1643.0,-40.0,-23.0,118922.0
66365.38232421875,1644.0,-50.0,-23.0,118922.0
66392.06494140625,1645.0,-54.0,-23.0,118922.0
66418.74780273438,1646.0,-52.0,-24.0,118921.0
66445.43041992188,1647.0,-50.0,-22.0,118923.0
66472.11303710938,1648.0,-49.0,-17.0,118928.0
66498.7958984375,1649.0,-48.0,-14.0,118931.0
66525.478515625,1650.0,-46.0,-13.0,118932.0
66552.16137695312,1651.0,-46.0,-8.0,118937.0
66578.84399414062,1652.0,-43.0,3.0,118948.0
66605.52661132812,1653.0,-31.0,8.0,118953.0
66632.20947265625,1654.0,-20.0,4.0,118949.0
66658.89208984375,1655.0,-13.0,4.0,118949.0
66685.57495117188,1656.0,-9.0,10.0,118955.0
66712.25756835938,1657.0,-10.0,15.0,118960.0
66738.94018554688,1658.0,-10.0,16.0,118961.0
66765.623046875,1659.0,-7.0,18.0,118963.0
66792.3056640625,1660.0,2.0,22.0,118967.0
66818.98852539062,1661.0,8.0,25.0,118970.0
66845.67114257812,1662.0,9.0,22.0,118967.0
66872.35375976562,1663.0,9.0,22.0,118967.0
66899.03662109375,1664.0,6.0,28.0,118973.0
66925.71923828125,1665.0,-1.0,29.0,118974.0
66952.40209960938,1666.0,-11.0,16.0,118961.0
66979.08471679688,1667.0,-20.0,-3.0,118942.0
67005.76733398438,1668.0,-27.0,-15.0,118930.0
67032.4501953125,1669.0,-34.0,-16.0,118929.0
67059.1328125,1670.0,-38.0,-13.0,118932.0
67085.8154296875,1671.0,-38.0,-14.0,118931.0
67112.49829101562,1672.0,-40.0,-18.0,118927.0
67139.18090820312,1673.0,-41.0,-19.0,118926.0
67165.86376953125,1674.0,-37.0,-11.0,118934.0
67192.54638671875,1675.0,-28.0,-3.0,118942.0
67219.22900390625,1676.0,-16.0,0.0,118945.0
67245.91186523438,1677.0,-3.0,1.0,118946.0
67272.59448242188,1678.0,1.0,-1.0,118944.0
67299.27734375,1679.0,0.0,-3.0,118942.0
67325.9599609375,1680.0,8.0,1.0,118946.0
67352.642578125,1681.0,14.0,6.0,118951.0
67379.32543945312,1682.0,8.0,8.0,118953.0
67406.00805664062,1683.0,1.0,9.0,118954.0
67432.69091796875,1684.0,6.0,13.0,118958.0
67459.37353515625,1685.0,12.0,17.0,118962.0
67486.05615234375,1686.0,15.0,15.0,118960.0
67512.73901367188,1687.0,15.0,14.0,118959.0
67539.42163085938,1688.0,14.0,19.0,118964.0
67566.1044921875,1689.0,16.0,20.0,118965.0
67592.787109375,1690.0,17.0,18.0,118963.0
67619.4697265625,1691.0,10.0,16.0,118961.0
67646.15258789062,1692.0,-3.0,5.0,118950.0
67672.83520507812,1693.0,-16.0,-9.0,118936.0
67699.51806640625,1694.0,-23.0,-15.0,118930.0
67726.20068359375,1695.0,-25.0,-20.0,118925.0
67752.88330078125,1696.0,-28.0,-34.0,118911.0
67779.56616210938,1697.0,-37.0,-47.0,118898.0
67806.24877929688,1698.0,-46.0,-48.0,118897.0
67832.931640625,1699.0,-47.0,-39.0,118906.0
67859.6142578125,1700.0,-40.0,-26.0,118919.0
67886.296875,1701.0,-30.0,-20.0,118925.0
67912.97973632812,1702.0,-20.0,-19.0,118926.0
67939.66235351562,1703.0,-13.0,-21.0,118924.0
67966.34521484375,1704.0,-10.0,-24.0,118921.0
67993.02783203125,1705.0,-11.0,-25.0,118920.0
68019.71044921875,1706.0,-14.0,-26.0,118919.0
68046.39331054688,1707.0,-15.0,-30.0,118915.0
68073.07592773438,1708.0,-13.0,-31.0,118914.0
68099.7587890625,1709.0,-5.0,-22.0,118923.0
68126.44140625,1710.0,1.0,-17.0,118928.0
68153.1240234375,1711.0,1.0,-18.0,118927.0
68179.80688476562,1712.0,0.0,-14.0,118931.0
68206.48950195312,1713.0,4.0,-13.0,118932.0
68233.17236328125,1714.0,9.0,-12.0,118933.0
68259.85498046875,1715.0,11.0,-7.0,118938.0
68286.53759765625,1716.0,13.0,-4.0,118941.0
68313.22045898438,1717.0,9.0,-7.0,118938.0
68339.90307617188,1718.0,-5.0,-14.0,118931.0
68366.5859375,1719.0,-20.0,-26.0,118919.0
68393.2685546875,1720.0,-29.0,-35.0,118910.0
68419.951171875,1721.0,-33.0,-34.0,118911.0
68446.63403320312,1722.0,-38.0,-36.0,118909.0
68473.31665039062,1723.0,-45.0,-44.0,118901.0
68499.99951171875,1724.0,-50.0,-53.0,118892.0
68526.68212890625,1725.0,-48.0,-56.0,118889.0
68553.36474609375,1726.0,-43.0,-54.0,118891.0
68580.04760742188,1727.0,-37.0,-48.0,118897.0
68606.73022460938,1728.0,-36.0,-43.0,118902.0
68633.4130859375,1729.0,-35.0,-39.0,118906.0
68660.095703125,1730.0,-31.0,-38.0,118907.0
68686.7783203125,1731.0,-25.0,-40.0,118905.0
68713.46118164062,1732.0,-22.0,-38.0,118907.0
68740.14379882812,1733.0,-26.0,-34.0,118911.0
68766.82666015625,1734.0,-27.0,-35.0,118910.0
68793.50927734375,1735.0,-25.0,-40.0,118905.0
68820.19189453125,1736.0,-20.0,-39.0,118906.0
68846.87475585938,1737.0,-11.0,-34.0,118911.0
68873.55737304688,1738.0,-7.0,-36.0,118909.0
68900.240234375,1739.0,-5.0,-34.0,118911.0
68926.9228515625,1740.0,5.0,-25.0,118920.0
68953.60546875,1741.0,13.0,-17.0,118928.0
68980.28833007812,1742.0,14.0,-10.0,118935.0
69006.97094726562,1743.0,13.0,-10.0,118935.0
69033.65380859375,1744.0,8.0,-19.0,118926.0
69060.33642578125,1745.0,-5.0,-31.0,118914.0
69087.01904296875,1746.0,-17.0,-41.0,118904.0
69113.70190429688,1747.0,-27.0,-48.0,118897.0
69140.38452148438,1748.0,-36.0,-54.0,118891.0
69167.0673828125,1749.0,-40.0,-56.0,118889.0
69193.75,1750.0,-43.0,-58.0,118887.0
69220.4326171875,1751.0,-43.0,-56.0,118889.0
69247.11547851562,1752.0,-37.0,-51.0,118894.0
69273.79809570312,1753.0,-28.0,-45.0,118900.0
69300.48071289062,1754.0,-25.0,-40.0,118905.0
69327.16357421875,1755.0,-27.0,-37.0,118908.0
69353.84619140625,1756.0,-26.0,-36.0,118909.0
69380.52905273438,1757.0,-22.0,-35.0,118910.0
69407.21166992188,1758.0,-18.0,-31.0,118914.0
69433.89428710938,1759.0,-17.0,-27.0,118918.0
69460.5771484375,1760.0,-17.0,-22.0,118923.0
69487.259765625,1761.0,-11.0,-23.0,118922.0
69513.94262695312,1762.0,0.0,-23.0,118922.0
69540.62524414062,1763.0,9.0,-17.0,118928.0
69567.30786132812,1764.0,9.0,-10.0,118935.0
69593.99072265625,1765.0,7.0,-7.0,118938.0
69620.67333984375,1766.0,11.0,-8.0,118937.0
69647.35620117188,1767.0,14.0,-17.0,118928.0
69674.03881835938,1768.0,12.0,-24.0,118921.0
69700.72143554688,1769.0,10.0,-20.0,118925.0
69727.404296875,1770.0,10.0,-12.0,118933.0
69754.0869140625,1771.0,3.0,-16.0,118929.0
69780.76977539062,1772.0,-11.0,-33.0,118912.0
69807.45239257812,1773.0,-16.0,-47.0,118898.0
69834.13500976562,1774.0,-17.0,-52.0,118893.0
69860.81787109375,1775.0,-23.0,-56.0,118889.0
69887.50048828125,1776.0,-30.0,-58.0,118887.0
69914.18334960938,1777.0,-33.0,-51.0,118894.0
69940.86596679688,1778.0,-29.0,-48.0,118897.0
69967.54858398438,1779.0,-23.0,-44.0,118901.0
69994.2314453125,1780.0,-18.0,-33.0,118912.0
70020.9140625,1781.0,-14.0,-32.0,118913.0
70047.59692382812,1782.0,-10.0,-37.0,118908.0
70074.27954101562,1783.0,-9.0,-37.0,118908.0
70100.96215820312,1784.0,-7.0,-32.0,118913.0
70127.64501953125,1785.0,-1.0,-22.0,118923.0
70154.32763671875,1786.0,3.0,-17.0,118928.0
70181.01049804688,1787.0,5.0,-18.0,118927.0
70207.69311523438,1788.0,6.0,-18.0,118927.0
70234.37573242188,1789.0,6.0,-15.0,118930.0
70261.05859375,1790.0,7.0,-11.0,118934.0
70287.7412109375,1791.0,14.0,-8.0,118937.0
70314.42407226562,1792.0,20.0,-7.0,118938.0
70341.10668945312,1793.0,20.0,-5.0,118940.0
70367.78930664062,1794.0,17.0,0.0,118945.0
70394.47216796875,1795.0,16.0,8.0,118953.0
70421.15478515625,1796.0,21.0,13.0,118958.0
70447.83764648438,1797.0,26.0,13.0,118958.0
70474.52026367188,1798.0,20.0,5.0,118950.0
70501.20288085938,1799.0,7.0,-8.0,118937.0
70527.8857421875,1800.0,-8.0,-17.0,118928.0
70554.568359375,1801.0,-16.0,-23.0,118922.0
70581.25122070312,1802.0,-15.0,-27.0,118918.0
70607.93383789062,1803.0,-12.0,-30.0,118915.0
70634.61645507812,1804.0,-13.0,-41.0,118904.0
70661.29931640625,1805.0,-13.0,-53.0,118892.0
70687.98193359375,1806.0,-10.0,-48.0,118897.0
70714.66479492188,1807.0,-9.0,-26.0,118919.0
70741.34741210938,1808.0,-9.0,-10.0,118935.0
70768.03002929688,1809.0,-2.0,-8.0,118937.0
70794.712890625,1810.0,-1.0,-11.0,118934.0
70821.3955078125,1811.0,-3.0,-17.0,118928.0
70848.07836914062,1812.0,2.0,-14.0,118931.0
70874.76098632812,1813.0,5.0,-7.0,118938.0
70901.44360351562,1814.0,3.0,-6.0,118939.0
70928.12646484375,1815.0,6.0,-6.0,118939.0
70954.80908203125,1816.0,9.0,0.0,118945.0
70981.49194335938,1817.0,12.0,3.0,118948.0
71008.17456054688,1818.0,15.0,1.0,118946.0
71034.85717773438,1819.0,15.0,-1.0,118944.0
71061.5400390625,1820.0,17.0,0.0,118945.0
71088.22265625,1821.0,23.0,6.0,118951.0
71114.90551757812,1822.0,29.0,14.0,118959.0
71141.58813476562,1823.0,29.0,13.0,118958.0
71168.27075195312,1824.0,23.0,3.0,118948.0
71194.95361328125,1825.0,16.0,-4.0,118941.0
71221.63623046875,1826.0,10.0,-12.0,118933.0
71248.31909179688,1827.0,0.0,-28.0,118917.0
71275.00170898438,1828.0,-13.0,-34.0,118911.0
71301.68432617188,1829.0,-21.0,-30.0,118915.0
71328.3671875,1830.0,-32.0,-31.0,118914.0
71355.0498046875,1831.0,-44.0,-42.0,118903.0
71381.73266601562,1832.0,-52.0,-48.0,118897.0
71408.41528320312,1833.0,-47.0,-44.0,118901.0
71435.09790039062,1834.0,-33.0,-33.0,118912.0
71461.78076171875,1835.0,-18.0,-22.0,118923.0
71488.46337890625,1836.0,-11.0,-19.0,118926.0
71515.14624023438,1837.0,-10.0,-21.0,118924.0
71541.82885742188,1838.0,-12.0,-18.0,118927.0
71568.51147460938,1839.0,-13.0,-8.0,118937.0
71595.1943359375,1840.0,-11.0,0.0,118945.0
71621.876953125,1841.0,-11.0,1.0,118946.0
71648.5595703125,1842.0,-12.0,-1.0,118944.0
71675.24243164062,1843.0,-10.0,-1.0,118944.0
71701.92504882812,1844.0,-7.0,0.0,118945.0
71728.60791015625,1845.0,-4.0,-4.0,118941.0
71755.29052734375,1846.0,-3.0,-8.0,118937.0
71781.97314453125,1847.0,0.0,-8.0,118937.0
71808.65600585938,1848.0,3.0,-4.0,118941.0
71835.33862304688,1849.0,6.0,2.0,118947.0
71862.021484375,1850.0,10.0,7.0,118952.0
71888.7041015625,1851.0,14.0,9.0,118954.0
71915.38671875,1852.0,14.0,5.0,118950.0
71942.06958007812,1853.0,6.0,-7.0,118938.0
71968.75219726562,1854.0,-11.0,-22.0,118923.0
71995.43505859375,1855.0,-27.0,-33.0,118912.0
72022.11767578125,1856.0,-32.0,-40.0,118905.0
72048.80029296875,1857.0,-34.0,-41.0,118904.0
72075.48315429688,1858.0,-37.0,-36.0,118909.0
72102.16577148438,1859.0,-43.0,-34.0,118911.0
72128.8486328125,1860.0,-47.0,-34.0,118911.0
72155.53125,1861.0,-42.0,-36.0,118909.0
72182.2138671875,1862.0,-30.0,-34.0,118911.0
72208.89672851562,1863.0,-24.0,-31.0,118914.0
72235.57934570312,1864.0,-24.0,-32.0,118913.0
72262.26220703125,1865.0,-22.0,-29.0,118916.0
72288.94482421875,1866.0,-17.0,-23.0,118922.0
72315.62744140625,1867.0,-14.0,-16.0,118929.0
72342.31030273438,1868.0,-12.0,-10.0,118935.0
72368.99291992188,1869.0,-10.0,-6.0,118939.0
72395.67578125,1870.0,-9.0,-3.0,118942.0
72422.3583984375,1871.0,-4.0,1.0,118946.0
72449.041015625,1872.0,5.0,1.0,118946.0
72475.72387695312,1873.0,11.0,1.0,118946.0
72502.40649414062,1874.0,16.0,3.0,118948.0
72529.08935546875,1875.0,19.0,9.0,118954.0
72555.77197265625,1876.0,17.0,12.0,118957.0
72582.45458984375,1877.0,18.0,10.0,118955.0
72609.13745117188,1878.0,25.0,9.0,118954.0
72635.82006835938,1879.0,28.0,12.0,118957.0
72662.5029296875,1880.0,25.0,15.0,118960.0
72689.185546875,1881.0,18.0,5.0,118950.0
72715.8681640625,1882.0,4.0,-14.0,118931.0
72742.55102539062,1883.0,-8.0,-27.0,118918.0
72769.23364257812,1884.0,-11.0,-33.0,118912.0
72795.91650390625,1885.0,-12.0,-34.0,118911.0
72822.59912109375,1886.0,-18.0,-28.0,118917.0
72849.28173828125,1887.0,-24.0,-29.0,118916.0
72875.96459960938,1888.0,-25.0,-36.0,118909.0
72902.64721679688,1889.0,-23.0,-33.0,118912.0
72929.330078125,1890.0,-15.0,-24.0,118921.0
72956.0126953125,1891.0,-6.0,-20.0,118925.0
72982.6953125,1892.0,-1.0,-20.0,118925.0
73009.37817382812,1893.0,-2.0,-23.0,118922.0
73036.06079101562,1894.0,-4.0,-23.0,118922.0
73062.74365234375,1895.0,-2.0,-20.0,118925.0
73089.42626953125,1896.0,3.0,-21.0,118924.0
73116.10888671875,1897.0,6.0,-23.0,118922.0
73142.79174804688,1898.0,9.0,-21.0,118924.0
73169.47436523438,1899.0,12.0,-22.0,118923.0
73196.1572265625,1900.0,16.0,-29.0,118916.0
73222.83984375,1901.0,19.0,-29.0,118916.0
73249.5224609375,1902.0,17.0,-25.0,118920.0
73276.20532226562,1903.0,15.0,-23.0,118922.0
73302.88793945312,1904.0,16.0,-26.0,118919.0
73329.57080078125,1905.0,19.0,-27.0,118918.0
73356.25341796875,1906.0,24.0,-17.0,118928.0
73382.93603515625,1907.0,25.0,-10.0,118935.0
73409.61889648438,1908.0,16.0,-19.0,118926.0
73436.30151367188,1909.0,-2.0,-33.0,118912.0
73462.984375,1910.0,-15.0,-43.0,118902.0
73489.6669921875,1911.0,-20.0,-45.0,118900.0
73516.349609375,1912.0,-21.0,-46.0,118899.0
73543.03247070312,1913.0,-24.0,-45.0,118900.0
73569.71508789062,1914.0,-29.0,-44.0,118901.0
73596.39794921875,1915.0,-31.0,-39.0,118906.0
73623.08056640625,1916.0,-28.0,-36.0,118909.0
73649.76318359375,1917.0,-20.0,-38.0,118907.0
73676.44604492188,1918.0,-14.0,-43.0,118902.0
73703.12866210938,1919.0,-14.0,-45.0,118900.0
73729.8115234375,1920.0,-15.0,-46.0,118899.0
73756.494140625,1921.0,-16.0,-42.0,118903.0
73783.1767578125,1922.0,-20.0,-42.0,118903.0
73809.85961914062,1923.0,-22.0,-52.0,118893.0
73836.54223632812,1924.0,-19.0,-58.0,118887.0
73863.22485351562,1925.0,-12.0,-47.0,118898.0
73889.90771484375,1926.0,-7.0,-38.0,118907.0
73916.59033203125,1927.0,-5.0,-36.0,118909.0
73943.27319335938,1928.0,-2.0,-32.0,118913.0
73969.95581054688,1929.0,6.0,-31.0,118914.0
73996.63842773438,1930.0,11.0,-28.0,118917.0
74023.3212890625,1931.0,10.0,-17.0,118928.0
74050.00390625,1932.0,12.0,-13.0,118932.0
74076.68676757812,1933.0,15.0,-20.0,118925.0
74103.36938476562,1934.0,13.0,-27.0,118918.0
74130.05200195312,1935.0,3.0,-29.0,118916.0
74156.73486328125,1936.0,-10.0,-34.0,118911.0
74183.41748046875,1937.0,-20.0,-45.0,118900.0
74210.10034179688,1938.0,-30.0,-52.0,118893.0
74236.78295898438,1939.0,-37.0,-57.0,118888.0
74263.46557617188,1940.0,-40.0,-65.0,118880.0
74290.1484375,1941.0,-43.0,-68.0,118877.0
74316.8310546875,1942.0,-42.0,-60.0,118885.0
74343.51391601562,1943.0,-40.0,-47.0,118898.0
74370.19653320312,1944.0,-37.0,-42.0,118903.0
74396.87915039062,1945.0,-39.0,-46.0,118899.0
74423.56201171875,1946.0,-37.0,-42.0,118903.0
74450.24462890625,1947.0,-32.0,-36.0,118909.0
74476.92749023438,1948.0,-28.0,-32.0,118913.0
74503.61010742188,1949.0,-23.0,-34.0,118911.0
74530.29272460938,1950.0,-21.0,-34.0,118911.0
74556.9755859375,1951.0,-20.0,-35.0,118910.0
74583.658203125,1952.0,-17.0,-38.0,118907.0
74610.34106445312,1953.0,-12.0,-33.0,118912.0
74637.02368164062,1954.0,-4.0,-14.0,118931.0
74663.70629882812,1955.0,0.0,0.0,118945.0
74690.38916015625,1956.0,2.0,-4.0,118941.0
74717.07177734375,1957.0,5.0,-12.0,118933.0
74743.75463867188,1958.0,8.0,-13.0,118932.0
74770.43725585938,1959.0,12.0,-7.0,118938.0
74797.11987304688,1960.0,15.0,1.0,118946.0
74823.802734375,1961.0,16.0,1.0,118946.0
74850.4853515625,1962.0,9.0,-11.0,118934.0
74877.16821289062,1963.0,-7.0,-26.0,118919.0
74903.85083007812,1964.0,-22.0,-31.0,118914.0
74930.53344726562,1965.0,-25.0,-31.0,118914.0
74957.21630859375,1966.0,-24.0,-37.0,118908.0
74983.89892578125,1967.0,-29.0,-41.0,118904.0
75010.58178710938,1968.0,-38.0,-38.0,118907.0
75037.26440429688,1969.0,-45.0,-35.0,118910.0
75063.94702148438,1970.0,-42.0,-30.0,118915.0
75090.6298828125,1971.0,-34.0,-22.0,118923.0
75117.3125,1972.0,-29.0,-16.0,118929.0
75143.99536132812,1973.0,-28.0,-13.0,118932.0
75170.67797851562,1974.0,-29.0,-8.0,118937.0
75197.36059570312,1975.0,-26.0,-6.0,118939.0
75224.04345703125,1976.0,-20.0,-4.0,118941.0
75250.72607421875,1977.0,-16.0,1.0,118946.0
75277.40893554688,1978.0,-14.0,4.0,118949.0
75304.09155273438,1979.0,-14.0,4.0,118949.0
75330.77416992188,1980.0,-11.0,5.0,118950.0
75357.45703125,1981.0,-5.0,6.0,118951.0
75384.1396484375,1982.0,1.0,4.0,118949.0
75410.82250976562,1983.0,1.0,5.0,118950.0
75437.50512695312,1984.0,2.0,16.0,118961.0
75464.18774414062,1985.0,9.0,23.0,118968.0
75490.87060546875,1986.0,15.0,17.0,118962.0
75517.55322265625,1987.0,15.0,8.0,118953.0
75544.23608398438,1988.0,13.0,2.0,118947.0
75570.91870117188,1989.0,8.0,-5.0,118940.0
75597.60131835938,1990.0,-1.0,-12.0,118933.0
75624.2841796875,1991.0,-12.0,-23.0,118922.0
75650.966796875,1992.0,-19.0,-32.0,118913.0
75677.64965820312,1993.0,-25.0,-37.0,118908.0
75704.33227539062,1994.0,-33.0,-45.0,118900.0
75731.01489257812,1995.0,-41.0,-49.0,118896.0
75757.69775390625,1996.0,-45.0,-44.0,118901.0
75784.38037109375,1997.0,-43.0,-36.0,118909.0
75811.06323242188,1998.0,-35.0,-31.0,118914.0
75837.74584960938,1999.0,-31.0,-23.0,118922.0
75864.42846679688,2000.0,-30.0,-20.0,118925.0
75891.111328125,2001.0,-27.0,-22.0,118923.0
75917.7939453125,2002.0,-25.0,-17.0,118928.0
75944.47680664062,2003.0,-24.0,-11.0,118934.0
75971.15942382812,2004.0,-17.0,-5.0,118940.0
75997.84204101562,2005.0,-9.0,1.0,118946.0
76024.52490234375,2006.0,-12.0,-6.0,118939.0
76051.20751953125,2007.0,-19.0,-17.0,118928.0
76077.89038085938,2008.0,-22.0,-14.0,118931.0
76104.57299804688,2009.0,-13.0,-6.0,118939.0
76131.25561523438,2010.0,-2.0,-2.0,118943.0
76157.9384765625,2011.0,4.0,-8.0,118937.0
76184.62109375,2012.0,7.0,-10.0,118935.0
76211.3037109375,2013.0,10.0,-2.0,118943.0
76237.98657226562,2014.0,12.0,7.0,118952.0
76264.66918945312,2015.0,9.0,9.0,118954.0
76291.35205078125,2016.0,-2.0,5.0,118950.0
76318.03466796875,2017.0,-18.0,-8.0,118937.0
76344.71728515625,2018.0,-34.0,-25.0,118920.0
76371.40014648438,2019.0,-47.0,-34.0,118911.0
76398.08276367188,2020.0,-52.0,-35.0,118910.0
76424.765625,2021.0,-56.0,-35.0,118910.0
76451.4482421875,2022.0,-63.0,-39.0,118906.0
76478.130859375,2023.0,-76.0,-39.0,118906.0
76504.81372070312,2024.0,-77.0,-34.0,118911.0
76531.49633789062,2025.0,-55.0,-28.0,118917.0
76558.17919921875,2026.0,-37.0,-29.0,118916.0
76584.86181640625,2027.0,-35.0,-27.0,118918.0
76611.54443359375,2028.0,-31.0,-20.0,118925.0
76638.22729492188,2029.0,-26.0,-18.0,118927.0
76664.90991210938,2030.0,-20.0,-16.0,118929.0
76691.5927734375,2031.0,-16.0,-17.0,118928.0
76718.275390625,2032.0,-16.0,-23.0,118922.0
76744.9580078125,2033.0,-19.0,-31.0,118914.0
76771.64086914062,2034.0,-19.0,-36.0,118909.0
76798.32348632812,2035.0,-16.0,-27.0,118918.0
76825.00634765625,2036.0,-15.0,-18.0,118927.0
76851.68896484375,2037.0,-13.0,-19.0,118926.0
76878.37158203125,2038.0,-8.0,-17.0,118928.0
76905.05444335938,2039.0,1.0,-8.0,118937.0
76931.73706054688,2040.0,8.0,-5.0,118940.0
76958.419921875,2041.0,11.0,-14.0,118931.0
76985.1025390625,2042.0,6.0,-21.0,118924.0
77011.78515625,2043.0,-6.0,-24.0,118921.0
77038.46801757812,2044.0,-20.0,-29.0,118916.0
77065.15063476562,2045.0,-32.0,-34.0,118911.0
77091.83349609375,2046.0,-40.0,-39.0,118906.0
77118.51611328125,2047.0,-50.0,-42.0,118903.0
77145.19873046875,2048.0,-57.0,-47.0,118898.0
77171.88159179688,2049.0,-58.0,-47.0,118898.0
77198.56420898438,2050.0,-52.0,-44.0,118901.0
77225.2470703125,2051.0,-42.0,-38.0,118907.0
77251.9296875,2052.0,-32.0,-32.0,118913.0
77278.6123046875,2053.0,-26.0,-24.0,118921.0
77305.29516601562,2054.0,-25.0,-16.0,118929.0
77331.97778320312,2055.0,-26.0,-14.0,118931.0
77358.66064453125,2056.0,-24.0,-17.0,118928.0
77385.34326171875,2057.0,-18.0,-22.0,118923.0
77412.02587890625,2058.0,-16.0,-24.0,118921.0
77438.70874023438,2059.0,-17.0,-20.0,118925.0
77465.39135742188,2060.0,-18.0,-18.0,118927.0
77492.07421875,2061.0,-14.0,-25.0,118920.0
77518.7568359375,2062.0,-11.0,-30.0,118915.0
77545.439453125,2063.0,-8.0,-25.0,118920.0
77572.12231445312,2064.0,-2.0,-18.0,118927.0
77598.80493164062,2065.0,8.0,-15.0,118930.0
77625.48779296875,2066.0,19.0,-14.0,118931.0
77652.17041015625,2067.0,21.0,-15.0,118930.0
77678.85302734375,2068.0,16.0,-23.0,118922.0
77705.53588867188,2069.0,5.0,-33.0,118912.0
77732.21850585938,2070.0,-7.0,-36.0,118909.0
77758.9013671875,2071.0,-21.0,-39.0,118906.0
77785.583984375,2072.0,-30.0,-44.0,118901.0
77812.2666015625,2073.0,-35.0,-50.0,118895.0
77838.94946289062,2074.0,-37.0,-50.0,118895.0
77865.63208007812,2075.0,-43.0,-52.0,118893.0
77892.31494140625,2076.0,-50.0,-55.0,118890.0
77918.99755859375,2077.0,-43.0,-52.0,118893.0
77945.68017578125,2078.0,-31.0,-44.0,118901.0
77972.36303710938,2079.0,-26.0,-32.0,118913.0
77999.04565429688,2080.0,-31.0,-27.0,118918.0
78025.728515625,2081.0,-32.0,-31.0,118914.0
78052.4111328125,2082.0,-26.0,-34.0,118911.0
78079.09375,2083.0,-21.0,-37.0,118908.0
78105.77661132812,2084.0,-19.0,-35.0,118910.0
78132.45922851562,2085.0,-13.0,-30.0,118915.0
78159.14208984375,2086.0,-7.0,-25.0,118920.0
78185.82470703125,2087.0,-6.0,-21.0,118924.0
78212.50732421875,2088.0,-7.0,-23.0,118922.0
78239.19018554688,2089.0,-5.0,-25.0,118920.0
78265.87280273438,2090.0,-2.0,-21.0,118924.0
78292.5556640625,2091.0,2.0,-14.0,118931.0
78319.23828125,2092.0,8.0,-6.0,118939.0
78345.9208984375,2093.0,15.0,2.0,118947.0
78372.60375976562,2094.0,18.0,7.0,118952.0
78399.28637695312,2095.0,13.0,1.0,118946.0
78425.96899414062,2096.0,1.0,-9.0,118936.0
78452.65185546875,2097.0,-13.0,-19.0,118926.0
78479.33447265625,2098.0,-25.0,-27.0,118918.0
78506.01733398438,2099.0,-35.0,-31.0,118914.0
78532.69995117188,2100.0,-44.0,-33.0,118912.0
78559.38256835938,2101.0,-51.0,-39.0,118906.0
78586.0654296875,2102.0,-58.0,-45.0,118900.0
78612.748046875,2103.0,-58.0,-48.0,118897.0
78639.43090820312,2104.0,-45.0,-48.0,118897.0
78666.11352539062,2105.0,-28.0,-46.0,118899.0
78692.79614257812,2106.0,-18.0,-44.0,118901.0
78719.47900390625,2107.0,-20.0,-41.0,118904.0
78746.16162109375,2108.0,-19.0,-36.0,118909.0
78772.84448242188,2109.0,-13.0,-27.0,118918.0
78799.52709960938,2110.0,-4.0,-19.0,118926.0
78826.20971679688,2111.0,1.0,-11.0,118934.0
78852.892578125,2112.0,2.0,-7.0,118938.0
78879.5751953125,2113.0,2.0,-15.0,118930.0
78906.25805664062,2114.0,7.0,-21.0,118924.0
78932.94067382812,2115.0,12.0,-16.0,118929.0
78959.62329101562,2116.0,15.0,-11.0,118934.0
78986.30615234375,2117.0,19.0,-8.0,118937.0
79012.98876953125,2118.0,25.0,1.0,118946.0
79039.67163085938,2119.0,24.0,9.0,118954.0
79066.35424804688,2120.0,22.0,14.0,118959.0
79093.03686523438,2121.0,25.0,17.0,118962.0
79119.7197265625,2122.0,22.0,11.0,118956.0
79146.40234375,2123.0,9.0,-4.0,118941.0
79173.08520507812,2124.0,-6.0,-16.0,118929.0
79199.76782226562,2125.0,-16.0,-24.0,118921.0
79226.45043945312,2126.0,-22.0,-31.0,118914.0
79253.13330078125,2127.0,-27.0,-37.0,118908.0
79279.81591796875,2128.0,-34.0,-37.0,118908.0
79306.49877929688,2129.0,-38.0,-34.0,118911.0
79333.18139648438,2130.0,-34.0,-27.0,118918.0
79359.86401367188,2131.0,-25.0,-20.0,118925.0
79386.546875,2132.0,-18.0,-14.0,118931.0
79413.2294921875,2133.0,-14.0,-12.0,118933.0
79439.91235351562,2134.0,-14.0,-11.0,118934.0
79466.59497070312,2135.0,-12.0,-13.0,118932.0
79493.27758789062,2136.0,-10.0,-16.0,118929.0
79519.96044921875,2137.0,-8.0,-13.0,118932.0
79546.64306640625,2138.0,-5.0,-8.0,118937.0
79573.32592773438,2139.0,-4.0,-6.0,118939.0
79600.00854492188,2140.0,-5.0,-7.0,118938.0
79626.69116210938,2141.0,-1.0,-6.0,118939.0
79653.3740234375,2142.0,7.0,-2.0,118943.0
79680.056640625,2143.0,10.0,1.0,118946.0
79706.73950195312,2144.0,10.0,2.0,118947.0
79733.42211914062,2145.0,14.0,2.0,118947.0
79760.10473632812,2146.0,20.0,4.0,118949.0
79786.78759765625,2147.0,24.0,8.0,118953.0
79813.47021484375,2148.0,27.0,7.0,118952.0
79840.15307617188,2149.0,22.0,-1.0,118944.0
79866.83569335938,2150.0,6.0,-9.0,118936.0
79893.51831054688,2151.0,-14.0,-14.0,118931.0
79920.201171875,2152.0,-25.0,-15.0,118930.0
79946.8837890625,2153.0,-29.0,-15.0,118930.0
79973.56665039062,2154.0,-36.0,-17.0,118928.0
80000.24926757812,2155.0,-45.0,-22.0,118923.0
80026.93188476562,2156.0,-50.0,-26.0,118919.0
80053.61474609375,2157.0,-41.0,-23.0,118922.0
80080.29736328125,2158.0,-29.0,-16.0,118929.0
80106.98022460938,2159.0,-22.0,-12.0,118933.0
80133.66284179688,2160.0,-22.0,-10.0,118935.0
80160.34545898438,2161.0,-22.0,-7.0,118938.0
80187.0283203125,2162.0,-19.0,-4.0,118941.0
80213.7109375,2163.0,-18.0,-3.0,118942.0
80240.39379882812,2164.0,-17.0,-6.0,118939.0
80267.07641601562,2165.0,-12.0,-10.0,118935.0
80293.75903320312,2166.0,-7.0,-9.0,118936.0
80320.44189453125,2167.0,-8.0,-3.0,118942.0
80347.12451171875,2168.0,-8.0,3.0,118948.0
80373.80737304688,2169.0,1.0,6.0,118951.0
80400.48999023438,2170.0,9.0,7.0,118952.0
80427.17260742188,2171.0,11.0,10.0,118955.0
80453.85546875,2172.0,11.0,9.0,118954.0
80480.5380859375,2173.0,10.0,5.0,118950.0
80507.22094726562,2174.0,10.0,9.0,118954.0
80533.90356445312,2175.0,13.0,16.0,118961.0
80560.58618164062,2176.0,11.0,16.0,118961.0
80587.26904296875,2177.0,-2.0,9.0,118954.0
80613.95166015625,2178.0,-17.0,-4.0,118941.0
80640.63452148438,2179.0,-27.0,-13.0,118932.0
80667.31713867188,2180.0,-34.0,-17.0,118928.0
80693.99975585938,2181.0,-39.0,-23.0,118922.0
80720.6826171875,2182.0,-45.0,-28.0,118917.0
80747.365234375,2183.0,-51.0,-26.0,118919.0
80774.0478515625,2184.0,-55.0,-23.0,118922.0
80800.73071289062,2185.0,-51.0,-20.0,118925.0
80827.41333007812,2186.0,-43.0,-15.0,118930.0
80854.09619140625,2187.0,-35.0,-11.0,118934.0
80880.77880859375,2188.0,-30.0,-10.0,118935.0
80907.46142578125,2189.0,-29.0,-6.0,118939.0
80934.14428710938,2190.0,-33.0,1.0,118946.0
80960.82690429688,2191.0,-35.0,4.0,118949.0
80987.509765625,2192.0,-33.0,3.0,118948.0
81014.1923828125,2193.0,-27.0,1.0,118946.0
81040.875,2194.0,-21.0,0.0,118945.0
81067.55786132812,2195.0,-20.0,2.0,118947.0
81094.24047851562,2196.0,-17.0,10.0,118955.0
81120.92333984375,2197.0,-12.0,18.0,118963.0
81147.60595703125,2198.0,-9.0,20.0,118965.0
81174.28857421875,2199.0,-7.0,23.0,118968.0
81200.97143554688,2200.0,-1.0,27.0,118972.0
81227.65405273438,2201.0,6.0,26.0,118971.0
81254.3369140625,2202.0,11.0,21.0,118966.0
81281.01953125,2203.0,13.0,21.0,118966.0
81307.7021484375,2204.0,13.0,21.0,118966.0
81334.38500976562,2205.0,9.0,21.0,118966.0
81361.06762695312,2206.0,-5.0,13.0,118958.0
81387.75048828125,2207.0,-21.0,-2.0,118943.0
81414.43310546875,2208.0,-31.0,-9.0,118936.0
81441.11572265625,2209.0,-34.0,-9.0,118936.0
81467.79858398438,2210.0,-38.0,-10.0,118935.0
81494.48120117188,2211.0,-41.0,-10.0,118935.0
81521.1640625,2212.0,-41.0,-6.0,118939.0
81547.8466796875,2213.0,-35.0,-2.0,118943.0
81574.529296875,2214.0,-26.0,2.0,118947.0
81601.21215820312,2215.0,-18.0,8.0,118953.0
81627.89477539062,2216.0,-17.0,10.0,118955.0
81654.57763671875,2217.0,-22.0,11.0,118956.0
81681.26025390625,2218.0,-23.0,13.0,118958.0
81707.94287109375,2219.0,-21.0,14.0,118959.0
81734.62573242188,2220.0,-16.0,17.0,118962.0
81761.30834960938,2221.0,-14.0,20.0,118965.0
81787.9912109375,2222.0,-10.0,18.0,118963.0
81814.673828125,2223.0,-2.0,17.0,118962.0
81841.3564453125,2224.0,3.0,21.0,118966.0
81868.03930664062,2225.0,5.0,27.0,118972.0
81894.72192382812,2226.0,10.0,28.0,118973.0
81921.40478515625,2227.0,13.0,28.0,118973.0
81948.08740234375,2228.0,11.0,28.0,118973.0
81974.77001953125,2229.0,14.0,26.0,118971.0
82001.45288085938,2230.0,20.0,26.0,118971.0
82028.13549804688,2231.0,19.0,27.0,118972.0
82054.818359375,2232.0,9.0,21.0,118966.0
82081.5009765625,2233.0,-6.0,6.0,118951.0
82108.18359375,2234.0,-19.0,-12.0,118933.0
82134.86645507812,2235.0,-21.0,-23.0,118922.0
82161.54907226562,2236.0,-22.0,-29.0,118916.0
82188.23193359375,2237.0,-29.0,-34.0,118911.0
82214.91455078125,2238.0,-36.0,-36.0,118909.0
82241.59716796875,2239.0,-37.0,-29.0,118916.0
82268.28002929688,2240.0,-32.0,-18.0,118927.0
82294.96264648438,2241.0,-21.0,-8.0,118937.0
82321.6455078125,2242.0,-10.0,-2.0,118943.0
82348.328125,2243.0,-7.0,2.0,118947.0
82375.0107421875,2244.0,-8.0,5.0,118950.0
82401.69360351562,2245.0,-6.0,9.0,118954.0
82428.37622070312,2246.0,-2.0,13.0,118958.0
82455.05908203125,2247.0,-2.0,12.0,118957.0
82481.74169921875,2248.0,-5.0,12.0,118957.0
82508.42431640625,2249.0,-7.0,13.0,118958.0
82535.10717773438,2250.0,-6.0,10.0,118955.0
82561.78979492188,2251.0,-5.0,9.0,118954.0
82588.47265625,2252.0,-1.0,12.0,118957.0
82615.1552734375,2253.0,6.0,19.0,118964.0
82641.837890625,2254.0,13.0,26.0,118971.0
82668.52075195312,2255.0,20.0,27.0,118972.0
82695.20336914062,2256.0,23.0,26.0,118971.0
82721.88623046875,2257.0,24.0,27.0,118972.0
82748.56884765625,2258.0,20.0,29.0,118974.0
82775.25146484375,2259.0,13.0,27.0,118972.0
82801.93432617188,2260.0,0.0,18.0,118963.0
82828.61694335938,2261.0,-11.0,3.0,118948.0
82855.2998046875,2262.0,-16.0,-12.0,118933.0
82881.982421875,2263.0,-22.0,-18.0,118927.0
82908.6650390625,2264.0,-32.0,-17.0,118928.0
82935.34790039062,2265.0,-41.0,-20.0,118925.0
82962.03051757812,2266.0,-42.0,-24.0,118921.0
82988.71313476562,2267.0,-37.0,-25.0,118920.0
83015.39599609375,2268.0,-29.0,-24.0,118921.0
83042.07861328125,2269.0,-23.0,-18.0,118927.0
83068.76147460938,2270.0,-25.0,-12.0,118933.0
83095.44409179688,2271.0,-26.0,-9.0,118936.0
83122.12670898438,2272.0,-23.0,-7.0,118938.0
83148.8095703125,2273.0,-14.0,-6.0,118939.0
83175.4921875,2274.0,-8.0,-9.0,118936.0
83202.17504882812,2275.0,-8.0,-11.0,118934.0
83228.85766601562,2276.0,-9.0,-5.0,118940.0
83255.54028320312,2277.0,-7.0,-1.0,118944.0
83282.22314453125,2278.0,-2.0,4.0,118949.0
83308.90576171875,2279.0,4.0,7.0,118952.0
83335.58862304688,2280.0,8.0,9.0,118954.0
83362.27124023438,2281.0,13.0,10.0,118955.0
83388.95385742188,2282.0,22.0,9.0,118954.0
83415.63671875,2283.0,29.0,7.0,118952.0
83442.3193359375,2284.0,32.0,11.0,118956.0
83469.00219726562,2285.0,30.0,20.0,118965.0
83495.68481445312,2286.0,23.0,22.0,118967.0
83522.36743164062,2287.0,10.0,7.0,118952.0
83549.05029296875,2288.0,-4.0,-10.0,118935.0
83575.73291015625,2289.0,-11.0,-15.0,118930.0
83602.41577148438,2290.0,-15.0,-17.0,118928.0
83629.09838867188,2291.0,-22.0,-22.0,118923.0
83655.78100585938,2292.0,-35.0,-24.0,118921.0
83682.4638671875,2293.0,-47.0,-24.0,118921.0
83709.146484375,2294.0,-50.0,-22.0,118923.0
83735.82934570312,2295.0,-40.0,-11.0,118934.0
83762.51196289062,2296.0,-29.0,1.0,118946.0
83789.19458007812,2297.0,-25.0,1.0,118946.0
83815.87744140625,2298.0,-26.0,-6.0,118939.0
83842.56005859375,2299.0,-26.0,-7.0,118938.0
83869.24291992188,2300.0,-24.0,-3.0,118942.0
83895.92553710938,2301.0,-21.0,0.0,118945.0
83922.60815429688,2302.0,-18.0,4.0,118949.0
83949.291015625,2303.0,-16.0,9.0,118954.0
83975.9736328125,2304.0,-12.0,11.0,118956.0
84002.65649414062,2305.0,-3.0,11.0,118956.0
84029.33911132812,2306.0,8.0,12.0,118957.0
84056.02172851562,2307.0,17.0,14.0,118959.0
84082.70458984375,2308.0,16.0,20.0,118965.0
84109.38720703125,2309.0,12.0,26.0,118971.0
84136.07006835938,2310.0,12.0,34.0,118979.0
84162.75268554688,2311.0,13.0,36.0,118981.0
84189.43530273438,2312.0,12.0,30.0,118975.0
84216.1181640625,2313.0,12.0,24.0,118969.0
84242.80078125,2314.0,7.0,19.0,118964.0
84269.48364257812,2315.0,-5.0,11.0,118956.0
84296.16625976562,2316.0,-17.0,2.0,118947.0
84322.84887695312,2317.0,-23.0,-1.0,118944.0
84349.53173828125,2318.0,-28.0,-5.0,118940.0
84376.21435546875,2319.0,-33.0,-9.0,118936.0
84402.89721679688,2320.0,-38.0,-12.0,118933.0
84429.57983398438,2321.0,-43.0,-14.0,118931.0
84456.26245117188,2322.0,-44.0,-10.0,118935.0
84482.9453125,2323.0,-40.0,-7.0,118938.0
84509.6279296875,2324.0,-33.0,-12.0,118933.0
84536.31079101562,2325.0,-31.0,-16.0,118929.0
84562.99340820312,2326.0,-30.0,-12.0,118933.0
84589.67602539062,2327.0,-23.0,-9.0,118936.0
84616.35888671875,2328.0,-16.0,-10.0,118935.0
84643.04150390625,2329.0,-15.0,-5.0,118940.0
84669.72436523438,2330.0,-14.0,-4.0,118941.0
84696.40698242188,2331.0,-9.0,-8.0,118937.0
84723.08959960938,2332.0,-5.0,-11.0,118934.0
84749.7724609375,2333.0,-2.0,-5.0,118940.0
84776.455078125,2334.0,-1.0,9.0,118954.0
84803.13793945312,2335.0,3.0,22.0,118967.0
84829.82055664062,2336.0,7.0,22.0,118967.0
84856.50317382812,2337.0,10.0,13.0,118958.0
84883.18603515625,2338.0,12.0,12.0,118957.0
84909.86865234375,2339.0,15.0,16.0,118961.0
84936.55151367188,2340.0,17.0,15.0,118960.0
84963.23413085938,2341.0,15.0,13.0,118958.0
84989.91674804688,2342.0,8.0,12.0,118957.0
85016.599609375,2343.0,-6.0,4.0,118949.0
85043.2822265625,2344.0,-21.0,-7.0,118938.0
85069.96508789062,2345.0,-30.0,-16.0,118929.0
85096.64770507812,2346.0,-30.0,-19.0,118926.0
85123.33032226562,2347.0,-31.0,-17.0,118928.0
85150.01318359375,2348.0,-39.0,-21.0,118924.0
85176.69580078125,2349.0,-41.0,-30.0,118915.0
85203.37866210938,2350.0,-34.0,-34.0,118911.0
85230.06127929688,2351.0,-26.0,-25.0,118920.0
85256.74389648438,2352.0,-24.0,-11.0,118934.0
85283.4267578125,2353.0,-25.0,-3.0,118942.0
85310.109375,2354.0,-23.0,3.0,118948.0
85336.7919921875,2355.0,-19.0,5.0,118950.0
85363.47485351562,2356.0,-17.0,5.0,118950.0
85390.15747070312,2357.0,-15.0,4.0,118949.0
85416.84033203125,2358.0,-10.0,0.0,118945.0
85443.52294921875,2359.0,-6.0,-6.0,118939.0
85470.20556640625,2360.0,-1.0,-4.0,118941.0
85496.88842773438,2361.0,2.0,8.0,118953.0
85523.57104492188,2362.0,3.0,18.0,118963.0
85550.25390625,2363.0,7.0,18.0,118963.0
85576.9365234375,2364.0,15.0,16.0,118961.0
85603.619140625,2365.0,24.0,19.0,118964.0
85630.30200195312,2366.0,31.0,21.0,118966.0
85656.98461914062,2367.0,31.0,22.0,118967.0
85683.66748046875,2368.0,27.0,20.0,118965.0
85710.35009765625,2369.0,21.0,11.0,118956.0
85737.03271484375,2370.0,9.0,-4.0,118941.0
85763.71557617188,2371.0,-5.0,-14.0,118931.0
85790.39819335938,2372.0,-16.0,-17.0,118928.0
85817.0810546875,2373.0,-22.0,-12.0,118933.0
85843.763671875,2374.0,-28.0,-9.0,118936.0
85870.4462890625,2375.0,-38.0,-11.0,118934.0
85897.12915039062,2376.0,-46.0,-15.0,118930.0
85923.81176757812,2377.0,-43.0,-17.0,118928.0
85950.49462890625,2378.0,-28.0,-16.0,118929.0
85977.17724609375,2379.0,-18.0,-10.0,118935.0
86003.85986328125,2380.0,-19.0,-2.0,118943.0
86030.54272460938,2381.0,-25.0,4.0,118949.0
86057.22534179688,2382.0,-29.0,9.0,118954.0
86083.908203125,2383.0,-29.0,8.0,118953.0
86110.5908203125,2384.0,-24.0,2.0,118947.0
86137.2734375,2385.0,-19.0,0.0,118945.0
86163.95629882812,2386.0,-16.0,4.0,118949.0
86190.63891601562,2387.0,-14.0,8.0,118953.0
86217.32177734375,2388.0,-11.0,10.0,118955.0
86244.00439453125,2389.0,-8.0,9.0,118954.0
86270.68701171875,2390.0,-6.0,12.0,118957.0
86297.36987304688,2391.0,-4.0,20.0,118965.0
86324.05249023438,2392.0,2.0,23.0,118968.0
86350.7353515625,2393.0,8.0,20.0,118965.0
86377.41796875,2394.0,12.0,24.0,118969.0
86404.1005859375,2395.0,21.0,30.0,118975.0
86430.78344726562,2396.0,27.0,26.0,118971.0
86457.46606445312,2397.0,18.0,11.0,118956.0
86484.14892578125,2398.0,-1.0,-3.0,118942.0
86510.83154296875,2399.0,-17.0,-9.0,118936.0
86537.51416015625,2400.0,-24.0,-11.0,118934.0
86564.19702148438,2401.0,-25.0,-15.0,118930.0
86590.87963867188,2402.0,-33.0,-18.0,118927.0
86617.5625,2403.0,-42.0,-24.0,118921.0
86644.2451171875,2404.0,-41.0,-28.0,118917.0
86670.927734375,2405.0,-34.0,-23.0,118922.0
86697.61059570312,2406.0,-22.0,-16.0,118929.0
86724.29321289062,2407.0,-13.0,-14.0,118931.0
86750.97607421875,2408.0,-12.0,-15.0,118930.0
86777.65869140625,2409.0,-16.0,-16.0,118929.0
86804.34130859375,2410.0,-19.0,-16.0,118929.0
86831.02416992188,2411.0,-21.0,-14.0,118931.0
86857.70678710938,2412.0,-26.0,-16.0,118929.0
86884.3896484375,2413.0,-28.0,-18.0,118927.0
86911.072265625,2414.0,-21.0,-13.0,118932.0
86937.7548828125,2415.0,-12.0,-7.0,118938.0
86964.43774414062,2416.0,-10.0,0.0,118945.0
86991.12036132812,2417.0,-12.0,11.0,118956.0
87017.80322265625,2418.0,-12.0,14.0,118959.0
87044.48583984375,2419.0,-6.0,11.0,118956.0
87071.16845703125,2420.0,1.0,12.0,118957.0
87097.85131835938,2421.0,4.0,15.0,118960.0
87124.53393554688,2422.0,7.0,18.0,118963.0
87151.216796875,2423.0,10.0,20.0,118965.0
87177.8994140625,2424.0,4.0,19.0,118964.0
87204.58203125,2425.0,-10.0,11.0,118956.0
87231.26489257812,2426.0,-20.0,1.0,118946.0
87257.94750976562,2427.0,-27.0,-5.0,118940.0
87284.63037109375,2428.0,-35.0,-7.0,118938.0
87311.31298828125,2429.0,-43.0,-6.0,118939.0
87337.99560546875,2430.0,-47.0,-8.0,118937.0
87364.67846679688,2431.0,-50.0,-11.0,118934.0
87391.36108398438,2432.0,-48.0,-10.0,118935.0
87418.0439453125,2433.0,-45.0,-4.0,118941.0
87444.7265625,2434.0,-40.0,0.0,118945.0
87471.4091796875,2435.0,-34.0,3.0,118948.0
87498.09204101562,2436.0,-29.0,4.0,118949.0
87524.77465820312,2437.0,-29.0,4.0,118949.0
87551.45727539062,2438.0,-28.0,4.0,118949.0
87578.14013671875,2439.0,-21.0,6.0,118951.0
87604.82275390625,2440.0,-14.0,7.0,118952.0
87631.50561523438,2441.0,-7.0,7.0,118952.0
87658.18823242188,2442.0,-3.0,12.0,118957.0
87684.87084960938,2443.0,-2.0,15.0,118960.0
87711.5537109375,2444.0,-3.0,13.0,118958.0
87738.236328125,2445.0,-2.0,14.0,118959.0
87764.91918945312,2446.0,4.0,21.0,118966.0
87791.60180664062,2447.0,8.0,27.0,118972.0
87818.28442382812,2448.0,11.0,31.0,118976.0
87844.96728515625,2449.0,16.0,32.0,118977.0
87871.64990234375,2450.0,21.0,32.0,118977.0
87898.33276367188,2451.0,22.0,32.0,118977.0
87925.01538085938,2452.0,16.0,28.0,118973.0
87951.69799804688,2453.0,5.0,13.0,118958.0
87978.380859375,2454.0,-11.0,-9.0,118936.0
88005.0634765625,2455.0,-23.0,-26.0,118919.0
88031.74633789062,2456.0,-24.0,-33.0,118912.0
88058.42895507812,2457.0,-23.0,-28.0,118917.0
88085.11157226562,2458.0,-27.0,-24.0,118921.0
88111.79443359375,2459.0,-33.0,-28.0,118917.0
88138.47705078125,2460.0,-34.0,-35.0,118910.0
88165.15991210938,2461.0,-28.0,-32.0,118913.0
88191.84252929688,2462.0,-17.0,-23.0,118922.0
88218.52514648438,2463.0,-11.0,-23.0,118922.0
88245.2080078125,2464.0,-9.0,-25.0,118920.0
88271.890625,2465.0,-3.0,-18.0,118927.0
88298.57348632812,2466.0,4.0,-9.0,118936.0
88325.25610351562,2467.0,10.0,-5.0,118940.0
88351.93872070312,2468.0,11.0,-6.0,118939.0
88378.62158203125,2469.0,8.0,-7.0,118938.0
88405.30419921875,2470.0,6.0,-6.0,118939.0
88431.98706054688,2471.0,9.0,-5.0,118940.0
88458.66967773438,2472.0,11.0,-5.0,118940.0
88485.35229492188,2473.0,10.0,-5.0,118940.0
88512.03515625,2474.0,10.0,-2.0,118943.0
88538.7177734375,2475.0,17.0,5.0,118950.0
88565.40063476562,2476.0,23.0,9.0,118954.0
88592.08325195312,2477.0,25.0,5.0,118950.0
88618.76586914062,2478.0,27.0,0.0,118945.0
88645.44873046875,2479.0,27.0,1.0,118946.0
88672.13134765625,2480.0,22.0,2.0,118947.0
88698.81420898438,2481.0,13.0,-2.0,118943.0
88725.49682617188,2482.0,2.0,-9.0,118936.0
88752.17944335938,2483.0,-7.0,-13.0,118932.0
88778.8623046875,2484.0,-12.0,-13.0,118932.0
88805.544921875,2485.0,-16.0,-16.0,118929.0
88832.22778320312,2486.0,-21.0,-26.0,118919.0
88858.91040039062,2487.0,-25.0,-31.0,118914.0
88885.59301757812,2488.0,-21.0,-28.0,118917.0
88912.27587890625,2489.0,-12.0,-23.0,118922.0
88938.95849609375,2490.0,-3.0,-16.0,118929.0
88965.64135742188,2491.0,1.0,-7.0,118938.0
88992.32397460938,2492.0,-1.0,-8.0,118937.0
89019.00659179688,2493.0,-6.0,-15.0,118930.0
89045.689453125,2494.0,-9.0,-16.0,118929.0
89072.3720703125,2495.0,-6.0,-11.0,118934.0
89099.05493164062,2496.0,-1.0,-6.0,118939.0
89125.73754882812,2497.0,3.0,-3.0,118942.0
89152.42016601562,2498.0,4.0,-1.0,118944.0
89179.10302734375,2499.0,6.0,5.0,118950.0
89205.78564453125,2500.0,6.0,12.0,118957.0
89232.46850585938,2501.0,4.0,11.0,118956.0
89259.15112304688,2502.0,6.0,12.0,118957.0
89285.83374023438,2503.0,11.0,18.0,118963.0
89312.5166015625,2504.0,16.0,16.0,118961.0
89339.19921875,2505.0,21.0,11.0,118956.0
89365.88208007812,2506.0,25.0,11.0,118956.0
89392.56469726562,2507.0,22.0,9.0,118954.0
89419.24731445312,2508.0,9.0,-3.0,118942.0
89445.93017578125,2509.0,-9.0,-19.0,118926.0
89472.61279296875,2510.0,-21.0,-33.0,118912.0
89499.29565429688,2511.0,-26.0,-38.0,118907.0
89525.97827148438,2512.0,-30.0,-39.0,118906.0
89552.66088867188,2513.0,-34.0,-39.0,118906.0
89579.34375,2514.0,-40.0,-39.0,118906.0
89606.0263671875,2515.0,-40.0,-40.0,118905.0
89632.70922851562,2516.0,-33.0,-34.0,118911.0
89659.39184570312,2517.0,-27.0,-24.0,118921.0
89686.07446289062,2518.0,-31.0,-20.0,118925.0
89712.75732421875,2519.0,-35.0,-24.0,118921.0
89739.43994140625,2520.0,-33.0,-22.0,118923.0
89766.12280273438,2521.0,-33.0,-19.0,118926.0
89792.80541992188,2522.0,-30.0,-19.0,118926.0
89819.48803710938,2523.0,-22.0,-19.0,118926.0
89846.1708984375,2524.0,-18.0,-18.0,118927.0
89872.853515625,2525.0,-17.0,-15.0,118930.0
89899.5361328125,2526.0,-18.0,-12.0,118933.0
89926.21899414062,2527.0,-15.0,-11.0,118934.0
89952.90161132812,2528.0,-13.0,-9.0,118936.0
89979.58447265625,2529.0,-12.0,-2.0,118943.0
90006.26708984375,2530.0,-9.0,0.0,118945.0
90032.94970703125,2531.0,-6.0,-3.0,118942.0
90059.63256835938,2532.0,-3.0,-2.0,118943.0
90086.31518554688,2533.0,0.0,-1.0,118944.0
90112.998046875,2534.0,6.0,-6.0,118939.0
90139.6806640625,2535.0,6.0,-10.0,118935.0
90166.36328125,2536.0,-5.0,-16.0,118929.0
90193.04614257812,2537.0,-24.0,-27.0,118918.0
90219.72875976562,2538.0,-36.0,-32.0,118913.0
90246.41162109375,2539.0,-41.0,-35.0,118910.0
90273.09423828125,2540.0,-45.0,-39.0,118906.0
90299.77685546875,2541.0,-53.0,-39.0,118906.0
90326.45971679688,2542.0,-60.0,-37.0,118908.0
90353.14233398438,2543.0,-58.0,-31.0,118914.0
90379.8251953125,2544.0,-48.0,-24.0,118921.0
90406.5078125,2545.0,-35.0,-19.0,118926.0
90433.1904296875,2546.0,-26.0,-16.0,118929.0
90459.87329101562,2547.0,-26.0,-18.0,118927.0
90486.55590820312,2548.0,-34.0,-20.0,118925.0
90513.23876953125,2549.0,-37.0,-16.0,118929.0
90539.92138671875,2550.0,-31.0,-11.0,118934.0
90566.60400390625,2551.0,-24.0,-9.0,118936.0
90593.28686523438,2552.0,-22.0,-7.0,118938.0
90619.96948242188,2553.0,-19.0,-6.0,118939.0
90646.65234375,2554.0,-12.0,-3.0,118942.0
90673.3349609375,2555.0,-9.0,3.0,118948.0
90700.017578125,2556.0,-6.0,3.0,118948.0
90726.70043945312,2557.0,-4.0,0.0,118945.0
90753.38305664062,2558.0,0.0,0.0,118945.0
90780.06591796875,2559.0,7.0,3.0,118948.0
90806.74853515625,2560.0,17.0,6.0,118951.0
90833.43115234375,2561.0,23.0,9.0,118954.0
90860.11401367188,2562.0,22.0,13.0,118958.0
90886.79663085938,2563.0,16.0,17.0,118962.0
90913.4794921875,2564.0,8.0,13.0,118958.0
90940.162109375,2565.0,-3.0,0.0,118945.0
90966.8447265625,2566.0,-17.0,-17.0,118928.0
90993.52758789062,2567.0,-27.0,-31.0,118914.0
91020.21020507812,2568.0,-29.0,-36.0,118909.0
91046.89306640625,2569.0,-33.0,-36.0,118909.0
91073.57568359375,2570.0,-39.0,-33.0,118912.0
91100.25830078125,2571.0,-41.0,-37.0,118908.0
91126.94116210938,2572.0,-38.0,-43.0,118902.0
91153.62377929688,2573.0,-30.0,-41.0,118904.0
91180.306640625,2574.0,-22.0,-32.0,118913.0
91206.9892578125,2575.0,-17.0,-26.0,118919.0
91233.671875,2576.0,-13.0,-24.0,118921.0
91260.35473632812,2577.0,-10.0,-21.0,118924.0
91287.03735351562,2578.0,-8.0,-22.0,118923.0
91313.72021484375,2579.0,-9.0,-21.0,118924.0
91340.40283203125,2580.0,-9.0,-16.0,118929.0
91367.08544921875,2581.0,-4.0,-9.0,118936.0
91393.76831054688,2582.0,0.0,-4.0,118941.0
91420.45092773438,2583.0,0.0,-2.0,118943.0
91447.1337890625,2584.0,-2.0,2.0,118947.0
91473.81640625,2585.0,0.0,6.0,118951.0
91500.4990234375,2586.0,4.0,9.0,118954.0
91527.18188476562,2587.0,4.0,12.0,118957.0
91553.86450195312,2588.0,3.0,14.0,118959.0
91580.54736328125,2589.0,6.0,13.0,118958.0
91607.22998046875,2590.0,6.0,14.0,118959.0
91633.91259765625,2591.0,-3.0,14.0,118959.0
91660.59545898438,2592.0,-23.0,6.0,118951.0
